ID,Spectrometer,Cereal,Variety,Country,Year,Moisture,Protein,950,952,954,956,958,960,962,964,966,968,970,972,974,976,978,980,982,984,986,988,990,992,994,996,998,1000,1002,1004,1006,1008,1010,1012,1014,1016,1018,1020,1022,1024,1026,1028,1030,1032,1034,1036,1038,1040,1042,1044,1046,1048,1050,1052,1054,1056,1058,1060,1062,1064,1066,1068,1070,1072,1074,1076,1078,1080,1082,1084,1086,1088,1090,1092,1094,1096,1098,1100,1102,1104,1106,1108,1110,1112,1114,1116,1118,1120,1122,1124,1126,1128,1130,1132,1134,1136,1138,1140,1142,1144,1146,1148,1150,1152,1154,1156,1158,1160,1162,1164,1166,1168,1170,1172,1174,1176,1178,1180,1182,1184,1186,1188,1190,1192,1194,1196,1198,1200,1202,1204,1206,1208,1210,1212,1214,1216,1218,1220,1222,1224,1226,1228,1230,1232,1234,1236,1238,1240,1242,1244,1246,1248,1250,1252,1254,1256,1258,1260,1262,1264,1266,1268,1270,1272,1274,1276,1278,1280,1282,1284,1286,1288,1290,1292,1294,1296,1298,1300,1302,1304,1306,1308,1310,1312,1314,1316,1318,1320,1322,1324,1326,1328,1330,1332,1334,1336,1338,1340,1342,1344,1346,1348,1350,1352,1354,1356,1358,1360,1362,1364,1366,1368,1370,1372,1374,1376,1378,1380,1382,1384,1386,1388,1390,1392,1394,1396,1398,1400,1402,1404,1406,1408,1410,1412,1414,1416,1418,1420,1422,1424,1426,1428,1430,1432,1434,1436,1438,1440,1442,1444,1446,1448,1450,1452,1454,1456,1458,1460,1462,1464,1466,1468,1470,1472,1474,1476,1478,1480,1482,1484,1486,1488,1490,1492,1494,1496,1498,1500,1502,1504,1506,1508,1510,1512,1514,1516,1518,1520,1522,1524,1526,1528,1530,1532,1534,1536,1538,1540,1542,1544,1546,1548,1550,1552,1554,1556,1558,1560,1562,1564,1566,1568,1570,1572,1574,1576,1578,1580,1582,1584,1586,1588,1590,1592,1594,1596,1598,1600,1602,1604,1606,1608,1610,1612,1614,1616,1618,1620,1622,1624,1626,1628,1630,1632,1634,1636,1638,1640,1642,1644,1646,1648,1650
1,AuroraNIR,barley,Unknown,France,2021,9.986,9.383,0.17570436,0.17615107,0.17687477,0.17760704,0.17838037,0.17931534,0.18044622,0.18185961,0.1834079,0.18501396,0.18667273,0.18828057,0.1898074,0.19120176,0.19256651,0.19389848,0.19503143,0.19591253,0.19654648,0.19712368,0.19745499,0.19766951,0.19773299,0.19772229,0.19766448,0.19744727,0.19702272,0.19640468,0.19593515,0.19549836,0.19500197,0.19440955,0.19382297,0.19325039,0.19275738,0.19213694,0.19142032,0.19054122,0.18960181,0.18870957,0.18788905,0.18708766,0.18631136,0.18556565,0.18502298,0.18436791,0.18373135,0.18300647,0.18223116,0.18144415,0.18082574,0.18010689,0.1792962,0.17842478,0.17749493,0.17670052,0.17604631,0.17532159,0.17444819,0.17363779,0.17293884,0.17240106,0.17194277,0.17123926,0.17054148,0.16993952,0.16935778,0.16876142,0.1681298,0.16758342,0.16718997,0.16681799,0.16637689,0.1659157,0.16562648,0.16532846,0.16503328,0.16485718,0.16482046,0.16481434,0.16476452,0.16482762,0.16499926,0.16514291,0.16529165,0.16577017,0.16659747,0.1676552,0.16895048,0.17064904,0.17274815,0.17528994,0.17822072,0.18151738,0.18501025,0.18875518,0.19269621,0.19678499,0.20114765,0.20569073,0.21015227,0.21460146,0.21901247,0.22326225,0.227304,0.23113909,0.23474333,0.238167,0.24117936,0.24401878,0.24663818,0.24922226,0.2518369,0.25436848,0.25676969,0.25927261,0.26167116,0.26395971,0.26619983,0.26818043,0.26991409,0.27145699,0.27271149,0.27356997,0.27426887,0.2748982,0.27524903,0.27537304,0.27515519,0.27473894,0.27409351,0.27325115,0.27201217,0.27042335,0.26876253,0.26686218,0.26490229,0.26288745,0.2609432,0.25884032,0.25699174,0.25525159,0.25334445,0.25171384,0.25037307,0.24910858,0.247906,0.24670982,0.24575412,0.24487405,0.24408939,0.24342632,0.24273248,0.24218485,0.24171783,0.24130803,0.24073294,0.24023299,0.23987734,0.23945017,0.23894076,0.23837957,0.23791841,0.23742932,0.23661804,0.23585807,0.23508163,0.23431821,0.23357622,0.23298782,0.23231865,0.23179618,0.23145427,0.23120059,0.23097494,0.23091361,0.23089407,0.23101203,0.23130126,0.23166355,0.23237574,0.23323999,0.23414977,0.23529328,0.23661475,0.23811132,0.2399032,0.24197741,0.24414502,0.24648324,0.24904355,0.25178978,0.25460079,0.25753695,0.26079592,0.26407558,0.26742882,0.27086589,0.27424058,0.27768388,0.28111327,0.28420955,0.28731358,0.29043674,0.29331708,0.29603824,0.29885522,0.30151626,0.30393356,0.30612311,0.30821168,0.31023821,0.3121762,0.31403247,0.31580567,0.31770882,0.32001957,0.32311285,0.32651842,0.33007357,0.33429021,0.33876845,0.34352472,0.34838596,0.3534199,0.35897845,0.36492717,0.37080109,0.37668473,0.38278371,0.38887802,0.3947098,0.40041164,0.40600091,0.41155478,0.41673073,0.42146403,0.42597538,0.43034986,0.43430233,0.43763986,0.44051793,0.44321328,0.4455781,0.44739029,0.44896576,0.45053303,0.45186457,0.45276678,0.45354125,0.45443439,0.45523712,0.45576707,0.4559319,0.45634392,0.45687887,0.45727152,0.45746997,0.45759389,0.45766136,0.45752448,0.45720854,0.45698601,0.45671278,0.45635846,0.45569968,0.45515397,0.45470136,0.45414838,0.45347193,0.45272455,0.45205152,0.45142761,0.45071247,0.44978318,0.44893309,0.44838014,0.44756788,0.4466064,0.44587669,0.44512367,0.4441787,0.44326922,0.44250718,0.44170317,0.44083583,0.43994117,0.43936107,0.43906239,0.43866602,0.43790466,0.4374449,0.43705109,0.43671083,0.43636051,0.43611169,0.4358643,0.43548366,0.43518028,0.43494311,0.43480638,0.43444678,0.43412191,0.43392336,0.4339059,0.43382183,0.43346229,0.43322226,0.43322337,0.43311012,0.43272364,0.43245158,0.43233556,0.4321267,0.43165645,0.43156499,0.43134913,0.43069598,0.430011,0.4293876,0.42871496,0.42800412,0.4270694,0.42609814,0.42529562,0.42439878,0.42333189,0.42242625,0.42194831,0.42109078,0.42008644,0.41951421,0.41871646,0.41782692,0.41691485,0.41605794,0.41528746,0.41434985,0.41364104,0.41317198,0.41257942,0.41198823,0.41135594,0.41080108,0.41031525,0.41006422,0.40966579,0.40945363,0.40937671,0.40931678,0.40905422
2,AuroraNIR,barley,Unknown,France,2021,10.886,10.42,0.19829802,0.19868831,0.19930367,0.19984715,0.20035984,0.20108481,0.20211697,0.2033972,0.20466568,0.20584281,0.20700885,0.20821969,0.20944829,0.2105325,0.2115363,0.21246585,0.21321899,0.21380515,0.2142278,0.21464255,0.21478392,0.21477647,0.21466778,0.21453045,0.21432422,0.2139456,0.21338721,0.21267195,0.21214014,0.21166547,0.21114579,0.21053737,0.20993881,0.20935771,0.20886089,0.20823562,0.20749027,0.20656046,0.2056246,0.20480113,0.20402279,0.20321529,0.20242272,0.20167004,0.2011281,0.20043278,0.19971578,0.19897078,0.19823354,0.19744217,0.19678688,0.19605505,0.19527276,0.19446291,0.19358984,0.19283246,0.19220628,0.19151838,0.1907088,0.18999295,0.18939441,0.18889794,0.18842924,0.18773416,0.18709263,0.1865786,0.18602906,0.18540937,0.18482372,0.18432491,0.18384378,0.1834117,0.18305622,0.18268813,0.18241318,0.18205114,0.18171528,0.18158926,0.18157656,0.18152733,0.18143928,0.18150438,0.18170388,0.18180172,0.18182173,0.18220672,0.1829803,0.18396653,0.18513739,0.18665233,0.18853152,0.19081406,0.19343342,0.19639888,0.19954333,0.202875,0.20640479,0.21015346,0.21408573,0.21809469,0.22213314,0.22620776,0.23014705,0.23388651,0.23743647,0.24080646,0.24393915,0.24687645,0.24947047,0.2519415,0.25413924,0.2562353,0.25834367,0.26043886,0.26244038,0.26450497,0.26646608,0.26834017,0.27016968,0.27177185,0.27317914,0.27441227,0.27540064,0.27608177,0.27661005,0.27705169,0.27727485,0.2773363,0.27709892,0.27669907,0.27610826,0.27535665,0.27420995,0.27272624,0.27123904,0.26955989,0.26781797,0.26597491,0.26422018,0.26237249,0.26071483,0.25911313,0.25739643,0.25594729,0.25474405,0.25360292,0.25248244,0.25132477,0.25042498,0.24960539,0.24885371,0.24820499,0.2475166,0.24697296,0.24651441,0.24611303,0.24553742,0.24503581,0.24467482,0.24423762,0.24378742,0.24332826,0.2428745,0.24239863,0.24169064,0.24105571,0.24035744,0.2396231,0.23895232,0.23848945,0.23795813,0.23753454,0.23728266,0.23713417,0.23695989,0.23693126,0.23699291,0.23722616,0.23759177,0.23795521,0.23869917,0.23962425,0.24056168,0.24168487,0.24297619,0.2444551,0.24617253,0.24814165,0.25020832,0.25237152,0.2547031,0.25723898,0.25988942,0.26262087,0.26557437,0.26856261,0.27162674,0.27474055,0.27779222,0.2808924,0.28397852,0.28680995,0.2895987,0.29235274,0.2949965,0.29751638,0.30010465,0.30255824,0.30478856,0.30681559,0.30875909,0.31060284,0.31240663,0.31426758,0.31608456,0.31806725,0.32047912,0.32360226,0.32710636,0.33087781,0.33527884,0.33993641,0.344919,0.35004735,0.35530511,0.36100578,0.36707488,0.3731803,0.37925747,0.38540313,0.39152613,0.39737517,0.40308544,0.40867603,0.41411301,0.41920766,0.42399785,0.42838034,0.43262881,0.43659246,0.43987891,0.44269744,0.44535324,0.44766462,0.44942221,0.45093313,0.45244494,0.4537814,0.45463896,0.45530313,0.45610717,0.45684862,0.45732522,0.45743859,0.4578124,0.45826894,0.45854917,0.45866859,0.45877123,0.45876563,0.45847818,0.4580504,0.45763609,0.45715126,0.45665839,0.45575625,0.45497894,0.45439821,0.4537206,0.45279631,0.4518148,0.45098692,0.45009685,0.44918871,0.44813919,0.44708574,0.44626227,0.44520316,0.444074,0.44322574,0.4423036,0.44109249,0.43993238,0.43908826,0.43814304,0.43709379,0.43604085,0.43521956,0.4347406,0.43429264,0.43346366,0.43270907,0.4321472,0.43173295,0.43120643,0.43094414,0.43063739,0.43005836,0.42954636,0.4291558,0.42895743,0.42849946,0.42796594,0.42769843,0.42755005,0.42728996,0.42688662,0.42656136,0.42643464,0.42621249,0.42574006,0.42534685,0.42514479,0.42480478,0.42410824,0.42389241,0.42359027,0.4228763,0.42213675,0.42136252,0.42053643,0.41965652,0.41857705,0.4175863,0.41668701,0.41557118,0.41436338,0.41346163,0.41272426,0.4117049,0.41063446,0.40989956,0.40905106,0.40790832,0.40675637,0.40587959,0.40507776,0.40401563,0.40309724,0.40247011,0.40179566,0.40099096,0.40029716,0.39966694,0.39895824,0.39853367,0.39792979,0.39751422,0.39719126,0.396965,0.39686453
3,AuroraNIR,barley,Unknown,France,2021,12.529,10.002,0.18932296,0.18998882,0.19095087,0.19189277,0.19280832,0.19385456,0.19507122,0.19643503,0.19773704,0.19895039,0.20018899,0.20151711,0.2028251,0.20383006,0.20474809,0.20580378,0.20673309,0.20734344,0.20770393,0.20805198,0.20813149,0.20807452,0.20794427,0.2078031,0.20758489,0.20719832,0.20664625,0.20586833,0.20516804,0.20457079,0.20402014,0.20331995,0.20257872,0.20195343,0.20144261,0.20069994,0.1998446,0.19891475,0.19798622,0.19710308,0.19621074,0.19529168,0.19445667,0.19365114,0.19296584,0.19218318,0.19150515,0.19077095,0.18995379,0.18904774,0.18834653,0.18769915,0.18692808,0.18596411,0.18502183,0.18432473,0.18370908,0.18299769,0.18221442,0.1815159,0.18088782,0.18037574,0.17991278,0.1792037,0.17855737,0.17808977,0.17761864,0.17706953,0.17650662,0.17607793,0.17582591,0.17555638,0.1751713,0.17483236,0.17469461,0.17443843,0.17422315,0.17428495,0.17440394,0.17442989,0.17450309,0.1747431,0.17502505,0.17524303,0.17546257,0.17600526,0.17689756,0.17803444,0.17943253,0.18123616,0.18338388,0.18594134,0.1889111,0.19226801,0.19582765,0.19963624,0.20364681,0.2078069,0.21216412,0.2166314,0.22106235,0.22544228,0.22962058,0.23354587,0.23720907,0.24057882,0.24365814,0.24655101,0.24907348,0.25144458,0.253553,0.25559574,0.25766495,0.25965211,0.2615101,0.26347101,0.26533443,0.26710427,0.26885498,0.27039647,0.27176288,0.2730217,0.27402908,0.27462947,0.27515033,0.27570724,0.27600908,0.27610612,0.27591044,0.27557501,0.27507171,0.27441821,0.27335611,0.27197045,0.27065372,0.26912904,0.26748082,0.26577255,0.2641716,0.26244074,0.26090652,0.2594482,0.25787035,0.25652266,0.25537819,0.25428337,0.2532351,0.25218514,0.25139114,0.25064212,0.24991733,0.24928823,0.24864426,0.24817012,0.24774048,0.24734519,0.24681486,0.24633276,0.24596639,0.24557441,0.24517907,0.24476463,0.24438891,0.24402252,0.24341667,0.24282764,0.24219131,0.24160396,0.24113548,0.24085581,0.24045008,0.24015601,0.24007009,0.24011856,0.24013585,0.24028444,0.24051309,0.24089909,0.24143809,0.24202818,0.24302204,0.24414569,0.24521008,0.24653304,0.24806489,0.24973458,0.25164539,0.25379667,0.25599632,0.25827149,0.26073784,0.26342088,0.26612312,0.26887822,0.27189088,0.27485952,0.27783287,0.28084335,0.28380352,0.28681111,0.28975958,0.29237264,0.29500872,0.29769751,0.30020151,0.3026025,0.30515468,0.30759677,0.309798,0.31179717,0.3137697,0.31571999,0.31766334,0.31967086,0.32172629,0.32404292,0.32685074,0.33042085,0.33441329,0.33871028,0.3436819,0.34899965,0.35469419,0.36049095,0.36638987,0.37277943,0.37956405,0.38619426,0.39276421,0.39947215,0.40601671,0.41222763,0.41826138,0.42407191,0.42977738,0.43506438,0.43986714,0.44440454,0.44884631,0.45290068,0.45627174,0.45927435,0.46209729,0.46441182,0.46622318,0.46783009,0.46939674,0.47076705,0.47164899,0.47233713,0.4731743,0.47396243,0.47448939,0.4745971,0.47485638,0.4753513,0.47580338,0.47597432,0.47602111,0.47594231,0.47561717,0.47516286,0.4746975,0.47410446,0.47343859,0.47233292,0.4713496,0.47056985,0.469686,0.46851233,0.46731603,0.4663462,0.46526334,0.46401516,0.46264127,0.46144584,0.46046048,0.4591642,0.45778149,0.45671439,0.45554739,0.45408264,0.45268598,0.45160344,0.45041823,0.44915614,0.44793552,0.44695383,0.4462209,0.44547737,0.44444051,0.44358394,0.44286349,0.44224942,0.44156238,0.44106865,0.44052669,0.43980479,0.43922326,0.43867373,0.43820038,0.43752035,0.43689474,0.43637726,0.43601307,0.43563938,0.43509459,0.43461922,0.43431523,0.43393856,0.43336856,0.43282196,0.43242744,0.4319663,0.43124065,0.43093872,0.43054596,0.42970386,0.42881715,0.42801231,0.42705309,0.42602617,0.42489529,0.42381936,0.42274725,0.42146954,0.42011902,0.41904476,0.41822389,0.41708359,0.41585523,0.41498286,0.41395247,0.41278026,0.41161153,0.41054699,0.40950829,0.40839046,0.40735382,0.40654501,0.40578997,0.40484631,0.40405586,0.40336385,0.40253499,0.40195942,0.40134865,0.40080076,0.40038496,0.40021315,0.39989486
4,AuroraNIR,barley,Unknown,France,2021,10.854,10.624,0.19649698,0.19691855,0.19741166,0.19786553,0.19850154,0.19935991,0.20034909,0.20146663,0.2025706,0.20373484,0.20500575,0.20621035,0.2073521,0.20847666,0.20961705,0.21065284,0.21149951,0.21219356,0.21264647,0.21298805,0.21309938,0.21313478,0.21301323,0.2128426,0.21272551,0.21247762,0.21194798,0.2112262,0.21072291,0.21023723,0.20964147,0.20897415,0.20836821,0.20780957,0.20730679,0.20660172,0.20580541,0.20493189,0.20406549,0.20326567,0.20249219,0.20168357,0.20088246,0.20012911,0.19960564,0.19892006,0.19819769,0.19747938,0.19680399,0.19606774,0.19544712,0.19472995,0.19393672,0.19309422,0.19219102,0.19142778,0.19083399,0.19019571,0.18941684,0.1886877,0.18803246,0.18747725,0.18697459,0.18627538,0.18562868,0.18508352,0.18451752,0.18390906,0.18332259,0.18280791,0.18231833,0.18190034,0.18157679,0.18122178,0.18094149,0.18058757,0.18027307,0.18016098,0.1801175,0.18002345,0.17996743,0.18007834,0.18025096,0.18033104,0.18038191,0.18078843,0.18152903,0.18242715,0.18356997,0.18513411,0.18700159,0.18925108,0.19190994,0.19487292,0.19793805,0.20124148,0.20476377,0.20844617,0.21234089,0.21636444,0.22037691,0.22440661,0.22833808,0.2320848,0.2356462,0.23904318,0.24220692,0.24515915,0.2477376,0.25019428,0.25243112,0.2545864,0.25673568,0.2588515,0.26087159,0.26297674,0.26500842,0.26694864,0.26877841,0.27036694,0.27181324,0.27313471,0.27419153,0.27485144,0.27535558,0.27582821,0.27611053,0.27620605,0.27595517,0.27554911,0.27497295,0.27423492,0.27308196,0.27158439,0.27010754,0.26841962,0.2666308,0.26476306,0.26301685,0.26119122,0.25955048,0.2579473,0.25620764,0.25473157,0.25349954,0.2523213,0.25123096,0.25016254,0.24925269,0.24837668,0.2476142,0.2469466,0.24624917,0.24574469,0.24530646,0.24489227,0.24430712,0.24380061,0.24343818,0.24300569,0.24255675,0.24208896,0.24162304,0.24116051,0.24047163,0.23977745,0.23899165,0.23823005,0.2376288,0.23723361,0.23668285,0.23621133,0.23593023,0.2357741,0.23556532,0.23552138,0.23560753,0.23576389,0.23605421,0.23646954,0.23721357,0.23807149,0.23896451,0.24009418,0.24137728,0.2427835,0.24446209,0.24643362,0.2484958,0.25063524,0.25298566,0.25558063,0.25815398,0.26083049,0.26387584,0.26684895,0.26985523,0.27299976,0.2761218,0.27926597,0.28234655,0.28516793,0.28800195,0.2908136,0.29340965,0.29592347,0.29858169,0.30105299,0.30327886,0.30531454,0.30726385,0.30904734,0.31079435,0.31268409,0.31453088,0.31649411,0.31884938,0.32193428,0.32539201,0.32908645,0.33340743,0.33802941,0.34298307,0.34802639,0.35325968,0.35899258,0.36504576,0.37102991,0.377076,0.38333514,0.38946548,0.39533311,0.40110737,0.40670484,0.41220707,0.41736898,0.42215976,0.42664135,0.43097055,0.4349238,0.43823874,0.44109094,0.44377923,0.44614226,0.44790775,0.44940168,0.45093855,0.45235988,0.45316491,0.45373201,0.45462719,0.45541567,0.45588511,0.45599896,0.4563348,0.45681855,0.45713839,0.45720378,0.45734668,0.45741996,0.45712727,0.45663711,0.45627454,0.4558579,0.45531604,0.45446751,0.45373687,0.45310527,0.45237896,0.451498,0.45058683,0.44980726,0.44899797,0.44803947,0.44695207,0.44603583,0.44519499,0.44405821,0.44291237,0.44206312,0.44111985,0.4399513,0.43889475,0.43807343,0.43708777,0.43605173,0.43508133,0.43427175,0.43380898,0.43332291,0.43241638,0.43179822,0.43124524,0.43075159,0.43029439,0.43002924,0.42964774,0.42909217,0.4287414,0.42835212,0.42805353,0.42763582,0.4272981,0.42696464,0.42672607,0.4265151,0.42619866,0.42593411,0.42573643,0.42544395,0.42503029,0.42459944,0.42434317,0.42404169,0.42344615,0.42326203,0.42293325,0.42217153,0.42139304,0.42061344,0.41980779,0.41897124,0.4179396,0.41695225,0.41597617,0.41480854,0.41359362,0.4126654,0.41196227,0.41107282,0.40996894,0.40899968,0.40821368,0.40720212,0.40601864,0.40502244,0.40420544,0.4031207,0.40215176,0.40156722,0.40100697,0.40010941,0.39933094,0.39862901,0.39783436,0.39742646,0.39689156,0.39648336,0.39613676,0.39588198,0.39568257
5,AuroraNIR,barley,Unknown,France,2021,9.712,9.455,0.16219042,0.16268127,0.16337852,0.16403747,0.16473801,0.16562499,0.16671769,0.16800497,0.16930932,0.17065281,0.1721018,0.17357709,0.17502849,0.17635326,0.17760432,0.1787492,0.17969082,0.18044886,0.1810111,0.18153353,0.1817984,0.18193181,0.18192902,0.18188353,0.18182567,0.18163159,0.18123683,0.18064867,0.18020512,0.17979078,0.17932373,0.17879155,0.17829283,0.17780717,0.1773665,0.17675585,0.17611419,0.17543626,0.17468093,0.17388405,0.17314123,0.17242023,0.1717069,0.17105468,0.17066759,0.17010036,0.16945401,0.1688354,0.1682511,0.16748819,0.16685471,0.16630933,0.16567257,0.16484924,0.16403633,0.16344325,0.1629,0.16224355,0.16151841,0.16089252,0.16035436,0.15993832,0.1595872,0.15902302,0.15847115,0.15797624,0.15745245,0.15690739,0.15641296,0.1560197,0.15566871,0.15534601,0.15504774,0.1547129,0.15448605,0.15422021,0.15397818,0.15389462,0.15391323,0.15392542,0.15394503,0.15410136,0.15432779,0.15449953,0.15466863,0.15516452,0.15597054,0.15694034,0.15815617,0.15979007,0.16173097,0.16402397,0.16666934,0.16963354,0.17273583,0.17603974,0.17954452,0.18323864,0.1871282,0.19111629,0.19510987,0.19913776,0.20307547,0.20686342,0.21048474,0.21390273,0.21707629,0.22006622,0.22269054,0.22519018,0.22747813,0.22970328,0.23193003,0.23409197,0.23617126,0.23839796,0.24051112,0.24247755,0.2443832,0.24607635,0.24760067,0.24896644,0.25007638,0.25084338,0.25144571,0.25198409,0.25234619,0.25251654,0.25232351,0.25200927,0.25152946,0.25084147,0.2497808,0.24840939,0.24697784,0.24532703,0.24362519,0.24182527,0.24011979,0.2383319,0.23671734,0.23515083,0.23348573,0.23206237,0.23084816,0.22970143,0.22863024,0.22756499,0.22670339,0.22589451,0.22517702,0.22456133,0.22393492,0.22350006,0.22308037,0.22267792,0.22217558,0.22171587,0.22134456,0.2209398,0.22053403,0.22009432,0.21964368,0.2191952,0.21852785,0.21786088,0.21712159,0.21640734,0.21578483,0.21532424,0.21472511,0.21424808,0.21396998,0.21379659,0.21358809,0.21352886,0.21355839,0.21369195,0.21395676,0.21429107,0.21497323,0.21579391,0.21663216,0.21767195,0.21887904,0.22025685,0.22187082,0.22371417,0.22563219,0.22770576,0.23000206,0.23249309,0.23503506,0.23768522,0.2406406,0.2435869,0.24660124,0.24972011,0.25279951,0.25595313,0.25908479,0.26187837,0.26468372,0.26751938,0.27012911,0.27262881,0.27525103,0.27768576,0.27989408,0.2819238,0.2838656,0.28565472,0.28735551,0.28908584,0.29072613,0.29251757,0.29473376,0.29758787,0.30076709,0.30418158,0.30818832,0.3124285,0.31698269,0.3216776,0.32648954,0.33179244,0.33753234,0.34324801,0.34897074,0.35486609,0.36073196,0.36635709,0.37188447,0.37729803,0.38265759,0.38769269,0.39236689,0.39676663,0.40103564,0.4049508,0.40827069,0.41111633,0.41375157,0.41604069,0.41778818,0.41929695,0.42081049,0.42216104,0.42307106,0.42379886,0.42463961,0.42545155,0.42599356,0.4261238,0.42650884,0.42701337,0.42736501,0.42753506,0.42767242,0.42773032,0.42755067,0.42724219,0.42697939,0.42661598,0.42617857,0.42541507,0.42481104,0.42436835,0.42380205,0.42299342,0.42219603,0.42162019,0.42092198,0.4200246,0.41904271,0.41828591,0.41756219,0.4166092,0.41565794,0.41484901,0.41398892,0.41296941,0.41200888,0.4111827,0.41034219,0.40947899,0.40857789,0.40790251,0.40746507,0.40699765,0.40625584,0.40575397,0.40526152,0.40489745,0.4046371,0.40438226,0.4040525,0.40363708,0.40336144,0.40304181,0.40286025,0.40251499,0.40216106,0.4019666,0.40190119,0.40177694,0.40148368,0.4012416,0.40115166,0.40099016,0.40065691,0.40036684,0.40021822,0.39995387,0.3993879,0.39927495,0.39904496,0.39839393,0.39774272,0.39709374,0.39630595,0.39550933,0.39457142,0.39359704,0.39281756,0.39181903,0.39063442,0.38975605,0.38908178,0.38816848,0.38718271,0.38648099,0.38570151,0.38468316,0.38356653,0.38267154,0.38199201,0.3809922,0.38013402,0.3796044,0.37899098,0.37818441,0.37746158,0.37685743,0.37625244,0.37593219,0.37537524,0.37503535,0.37487406,0.37474599,0.3745237
6,AuroraNIR,barley,Unknown,France,2021,11.577,10.894,0.20859812,0.20889755,0.20937453,0.20977825,0.21018444,0.21070534,0.21135703,0.2122159,0.21312276,0.21398906,0.2148594,0.21573985,0.21660629,0.21734035,0.21805653,0.21879692,0.21940657,0.21982856,0.22004649,0.220239,0.22022626,0.22013871,0.21993034,0.21971504,0.21957347,0.21928079,0.21865593,0.21784171,0.21730027,0.21681593,0.21623637,0.21557724,0.21496703,0.21440265,0.21389967,0.21320751,0.21246484,0.21167879,0.21082683,0.2099556,0.20915928,0.20841523,0.20771819,0.20704293,0.20653261,0.20587112,0.20521662,0.20451783,0.20379816,0.20302416,0.20242882,0.20181069,0.2010562,0.20015271,0.19929868,0.19867404,0.19806504,0.19736108,0.19666718,0.19604127,0.19539875,0.19484712,0.19437489,0.19371326,0.19312653,0.19266886,0.19214569,0.19151615,0.19091764,0.19045173,0.19007471,0.18969879,0.18929821,0.188933,0.18870564,0.1883065,0.18792008,0.18780932,0.18777172,0.18764798,0.18754824,0.18761626,0.18774973,0.18777722,0.18774767,0.18804252,0.18865925,0.18943276,0.19039178,0.1917004,0.19330479,0.19526014,0.19754314,0.20010512,0.20277666,0.20566188,0.20875859,0.21202929,0.2154582,0.21897221,0.22254479,0.22615087,0.22959162,0.23285942,0.2359755,0.23890088,0.24159481,0.24412586,0.24633098,0.2484311,0.25028962,0.25207406,0.25388199,0.25566053,0.25734475,0.25911978,0.26079893,0.26238495,0.2639263,0.26523951,0.26638165,0.26744932,0.26832187,0.26883936,0.26923898,0.26961946,0.26978186,0.26981592,0.26961422,0.26924703,0.26868013,0.26798433,0.26695207,0.26560235,0.26419246,0.26263344,0.26110521,0.25944504,0.25781289,0.25607142,0.25456876,0.25315958,0.25160787,0.25026694,0.24911563,0.24800353,0.24697194,0.24595548,0.2450995,0.2442736,0.24354841,0.24290749,0.24222556,0.24172193,0.24127078,0.24085778,0.24030849,0.23978898,0.23937453,0.23894902,0.23850806,0.23803291,0.23761478,0.23718862,0.23649952,0.23586151,0.23515809,0.23445261,0.23388509,0.23349303,0.23294395,0.23256586,0.23236902,0.23219477,0.23199786,0.2319905,0.23207271,0.23220031,0.23247485,0.23289283,0.23358414,0.2343795,0.23524323,0.23624536,0.23737092,0.23869194,0.24023192,0.24200331,0.24386676,0.24581881,0.24792296,0.25019899,0.2525382,0.25497845,0.25769106,0.2603724,0.26309526,0.26590812,0.26870409,0.27151027,0.27423882,0.27674532,0.2792542,0.2817409,0.2840963,0.28635061,0.28872687,0.29100773,0.29307282,0.29491368,0.29665479,0.29835314,0.30004975,0.3017838,0.30346903,0.30538213,0.30778211,0.31081244,0.31419584,0.31787318,0.32217827,0.32676288,0.33168685,0.33674869,0.3419989,0.34772527,0.35376719,0.35976619,0.36582413,0.37208304,0.37824643,0.38415143,0.38993946,0.3955346,0.40105578,0.40623629,0.41100979,0.4154655,0.41978875,0.42376131,0.42709973,0.42998046,0.43264499,0.43491501,0.43670318,0.43822429,0.43967512,0.44101983,0.4418484,0.44245276,0.44327325,0.44401672,0.44444749,0.4445231,0.44493386,0.44535571,0.44557834,0.44574347,0.44577727,0.44571233,0.44546187,0.4449912,0.4445312,0.44399807,0.44341904,0.44249231,0.4416655,0.44096231,0.44015753,0.43912056,0.43805972,0.43718338,0.43622556,0.4351624,0.43393549,0.43276045,0.43178385,0.43060094,0.42936358,0.42833579,0.4272587,0.42598346,0.42476487,0.42371693,0.42255908,0.42143884,0.42041612,0.41949639,0.41879457,0.41816783,0.41731584,0.41656852,0.41588464,0.41533396,0.41479117,0.41441563,0.41389155,0.41318554,0.41270885,0.41220677,0.41181576,0.41121447,0.41058853,0.41020808,0.41002741,0.40977657,0.40928242,0.40879104,0.40848172,0.4081378,0.40763769,0.4072156,0.40681091,0.40632322,0.40570134,0.40539405,0.40493327,0.4040961,0.40326864,0.40241981,0.40145919,0.40046147,0.39931211,0.39820939,0.39721501,0.3960163,0.39467081,0.39359984,0.39284763,0.39174324,0.39050475,0.38965538,0.38869143,0.38751614,0.38636404,0.38541818,0.38447788,0.38330239,0.38232332,0.38159764,0.38077646,0.37994671,0.37916335,0.37839523,0.3776187,0.37720937,0.37665325,0.37615028,0.37582934,0.37570387,0.37532967
7,AuroraNIR,barley,Unknown,France,2021,11.089,10.303,0.20384312,0.20396909,0.20442942,0.20488709,0.20529491,0.20582457,0.20653978,0.20743717,0.20833942,0.20926969,0.21028817,0.2112996,0.21225739,0.21307988,0.21385126,0.21456845,0.21514282,0.21558936,0.21586555,0.21610746,0.21610115,0.21600038,0.21584283,0.21567009,0.21540463,0.21497086,0.21439438,0.21360949,0.21290636,0.21229459,0.2117258,0.21104625,0.21034707,0.20971806,0.20916361,0.20837848,0.20751026,0.20660327,0.205694,0.20481604,0.20395264,0.20309153,0.20232292,0.20159647,0.20099691,0.2002207,0.19946811,0.19875245,0.19804245,0.19715749,0.19640993,0.19574411,0.19497749,0.19402196,0.19309488,0.1923864,0.19167572,0.19086763,0.19008932,0.18940069,0.1887106,0.18811356,0.18759753,0.18689714,0.18621859,0.18559776,0.18502061,0.1844728,0.18386874,0.18330525,0.18286316,0.18244953,0.18200701,0.18159084,0.1813387,0.18098736,0.18062447,0.18044141,0.1803714,0.18029208,0.18021512,0.18028352,0.1804315,0.18047708,0.1804698,0.18081564,0.18150732,0.18236724,0.18344624,0.18492176,0.18673104,0.18891621,0.19144659,0.19428366,0.19726601,0.20049448,0.20392044,0.20747602,0.21124761,0.21516052,0.21904106,0.22291628,0.22668408,0.23025519,0.23362787,0.2368277,0.23978494,0.24252525,0.24490681,0.24716246,0.24916026,0.25110686,0.2531006,0.25501689,0.25681689,0.25874454,0.2605682,0.26229107,0.26402166,0.2655282,0.26680481,0.26795202,0.26889819,0.26953551,0.27006474,0.27053893,0.27073705,0.27079418,0.27063835,0.27030024,0.26974395,0.26905435,0.2679815,0.26657566,0.26518416,0.26360929,0.26196399,0.26019841,0.25850618,0.25672612,0.25517139,0.25368184,0.25203648,0.25064898,0.24950552,0.24839552,0.24733,0.24626361,0.24540763,0.24458763,0.24382856,0.24317844,0.24252349,0.24204883,0.24159136,0.24114591,0.2405761,0.24004892,0.23964716,0.23926666,0.23886105,0.23838173,0.2379335,0.23751256,0.2368713,0.2362432,0.23553719,0.2348461,0.23427297,0.23387684,0.23334505,0.23297033,0.23279421,0.23268084,0.23251796,0.2325315,0.23266599,0.23287015,0.23322503,0.23370343,0.23442018,0.23525582,0.23622033,0.23733282,0.23858111,0.2400573,0.24175,0.24365671,0.24565056,0.24776077,0.25003964,0.25248808,0.25501421,0.25762576,0.2604681,0.26327044,0.26614627,0.26913357,0.27204609,0.27496839,0.27783853,0.28043497,0.28307053,0.28572732,0.28817168,0.29052907,0.29304522,0.2954067,0.29750386,0.29941145,0.30130202,0.30308342,0.30480394,0.30660361,0.30841309,0.31040734,0.31280929,0.3159081,0.31939703,0.32315618,0.32752156,0.33216092,0.33713445,0.34223303,0.34751886,0.35326681,0.35930586,0.36531174,0.37129539,0.37739569,0.3834804,0.38924527,0.39482668,0.40030631,0.40571558,0.41078433,0.41548684,0.41985837,0.42410287,0.42802489,0.43132943,0.43422574,0.43695393,0.43927795,0.44103783,0.44259146,0.44419023,0.44560498,0.44648889,0.44717842,0.44807169,0.44886312,0.44937733,0.44955429,0.44996309,0.45047548,0.45080647,0.4509168,0.45105109,0.45107269,0.45076427,0.45033899,0.449994,0.44957104,0.44904566,0.44808125,0.4472999,0.44672695,0.44595289,0.44495133,0.44396919,0.44319686,0.44235164,0.44131079,0.44015095,0.43921363,0.43838102,0.43726063,0.43613216,0.43529251,0.43432242,0.4331443,0.43206805,0.43110982,0.43001512,0.42899704,0.42810187,0.42725906,0.42675087,0.42625812,0.42536336,0.4247725,0.42424783,0.42376047,0.42326614,0.42293286,0.42258406,0.4220444,0.42157692,0.4212375,0.42094082,0.42038313,0.41993991,0.41965705,0.41957352,0.4194006,0.4189238,0.41863006,0.41846839,0.41816199,0.41774002,0.4174343,0.41716635,0.41677627,0.41620928,0.41602835,0.4157218,0.41499478,0.41426495,0.41360298,0.41278934,0.41183621,0.41075295,0.40986669,0.40899754,0.4078767,0.40666786,0.40572825,0.40497276,0.4040356,0.40301156,0.40221703,0.40143648,0.40037522,0.39925888,0.39838755,0.39756727,0.39648351,0.39555815,0.39498356,0.39439064,0.39354631,0.39278883,0.39219019,0.39153513,0.3910453,0.39043024,0.39012924,0.38987809,0.3895745,0.3894234
8,AuroraNIR,barley,Unknown,France,2021,11.132,9.963,0.20689432,0.20696384,0.2073229,0.2076603,0.20796242,0.20844476,0.20917162,0.21003248,0.21081623,0.21165475,0.21261285,0.21347886,0.21424933,0.21499175,0.21576415,0.21646567,0.21700649,0.21741876,0.21763283,0.2177722,0.21765563,0.217461,0.21723193,0.21699838,0.21666169,0.2161524,0.21551463,0.21469626,0.21399075,0.21338867,0.2128305,0.21216756,0.21147867,0.21083188,0.21028146,0.20957781,0.20877106,0.20782521,0.20685428,0.20595038,0.20509286,0.20424663,0.2034712,0.20270941,0.20205794,0.20125493,0.2005116,0.19978677,0.1990575,0.19820704,0.19750081,0.19681312,0.19603306,0.19511972,0.19422224,0.19353178,0.19289711,0.19216277,0.19137231,0.19067812,0.19005518,0.18953796,0.18905576,0.18831514,0.1876227,0.18709224,0.18654835,0.18592328,0.18528168,0.18472825,0.18427445,0.1838848,0.18351161,0.18306112,0.18268926,0.1822899,0.18194592,0.18179145,0.18173812,0.18165536,0.18155642,0.18159939,0.18173692,0.18179619,0.18180829,0.18213516,0.18280508,0.18368621,0.18475091,0.18615454,0.18791853,0.19005232,0.1924665,0.19523974,0.19822592,0.20136179,0.20465377,0.20816159,0.21189338,0.21572304,0.21951436,0.22331212,0.2270173,0.23054132,0.23387761,0.23704138,0.23995696,0.24264687,0.24496812,0.24717499,0.2491641,0.25110918,0.25309044,0.25501636,0.2568101,0.25867644,0.26049396,0.26226789,0.26397529,0.2654278,0.2666955,0.26786476,0.26880983,0.26938233,0.26987305,0.27038029,0.27063572,0.27073428,0.27058482,0.27023274,0.26968047,0.26904082,0.26801142,0.26662806,0.26527295,0.2637215,0.26208127,0.26036254,0.25873774,0.25700343,0.25549659,0.25405297,0.25242996,0.2510708,0.24996178,0.24885452,0.24778052,0.24672504,0.24590665,0.24511664,0.24436255,0.2437461,0.2431393,0.24268483,0.24223836,0.24180207,0.2412383,0.24074715,0.2403806,0.23996511,0.23955034,0.23911344,0.23866053,0.23823008,0.2376053,0.23696767,0.23626195,0.23560819,0.23505998,0.23467144,0.2341387,0.23374596,0.23356147,0.2334742,0.23334834,0.23335879,0.23343901,0.2336313,0.23398948,0.23443899,0.23517577,0.23602116,0.23691788,0.23801328,0.23927204,0.24070489,0.24233806,0.24419716,0.24615572,0.24822065,0.25045127,0.25286874,0.25538304,0.25794786,0.26071081,0.26352885,0.26638836,0.26924449,0.27208966,0.27499789,0.27785182,0.28043041,0.28300115,0.28558692,0.28805658,0.29035041,0.29271823,0.29505643,0.29716849,0.29906559,0.30094206,0.302733,0.30445883,0.3062202,0.30796033,0.30985484,0.31216979,0.3152858,0.31877342,0.32245353,0.32675758,0.33133763,0.33626255,0.34134176,0.34653136,0.35215899,0.35814697,0.36409262,0.3700422,0.3761307,0.38211459,0.38781664,0.39340377,0.39885476,0.40423137,0.40921861,0.41379601,0.41820502,0.42250866,0.42639843,0.42969084,0.43258783,0.43531826,0.43765152,0.43940815,0.44094217,0.44250932,0.44388857,0.44477057,0.4454594,0.4463124,0.44713414,0.44768304,0.4478243,0.44819075,0.44863954,0.44892597,0.44906521,0.44921672,0.44923061,0.44892317,0.44851726,0.44813254,0.44763198,0.44707009,0.44610322,0.44525656,0.44461578,0.44391358,0.44290811,0.44189394,0.44111869,0.44016293,0.4391368,0.43802965,0.4369944,0.43616083,0.43506479,0.43391401,0.43304661,0.43200353,0.43077001,0.42971665,0.42882955,0.42777234,0.42668512,0.42567515,0.42483893,0.4243139,0.42376536,0.42283994,0.42219952,0.4216595,0.42119035,0.42068836,0.42030278,0.41993794,0.41940755,0.41890875,0.41853529,0.41823423,0.41769865,0.41725898,0.41689825,0.41668528,0.41647372,0.41606247,0.4156563,0.41548008,0.41522464,0.41468152,0.41426751,0.41402388,0.41366917,0.41302994,0.41279778,0.41245553,0.41168249,0.41090098,0.410198,0.40934488,0.40838844,0.40728819,0.40627906,0.40535456,0.40427288,0.403079,0.40207815,0.40133733,0.40029281,0.39913341,0.39834902,0.39751741,0.39632493,0.39518631,0.39434952,0.39336655,0.39218,0.39129344,0.39072204,0.39002985,0.38922551,0.38840371,0.387559,0.38678712,0.38648692,0.38575256,0.38537201,0.38513961,0.3846823,0.38434589
9,AuroraNIR,barley,Unknown,France,2021,11.317,10.939,0.21202464,0.21228279,0.21281317,0.21332321,0.21381497,0.21445678,0.21529877,0.21632871,0.21735191,0.21836153,0.21943794,0.22055633,0.22162956,0.22247022,0.22325794,0.22413599,0.22488761,0.22538091,0.22565135,0.22591677,0.22596215,0.22590916,0.22574064,0.22551854,0.22523537,0.22481251,0.22424214,0.22344927,0.22272813,0.22210538,0.22153832,0.22085889,0.22016023,0.21955036,0.21905404,0.21836917,0.21757345,0.21666592,0.21575345,0.21490003,0.21404004,0.21314473,0.21232474,0.21159165,0.21106915,0.21034878,0.20957814,0.20886485,0.20820646,0.20737222,0.20662843,0.20590565,0.20512955,0.20425479,0.20335838,0.20263238,0.20199762,0.20128973,0.20050816,0.19979125,0.19912606,0.19859339,0.19815113,0.19750594,0.19690083,0.19639274,0.19585858,0.19526137,0.19463985,0.19411959,0.19374968,0.19345497,0.19315594,0.19278452,0.19248487,0.19211334,0.19180924,0.19174705,0.19174403,0.1916595,0.19160147,0.19171056,0.19188614,0.19197415,0.1920314,0.19243322,0.19319049,0.19414209,0.19524941,0.1966764,0.19847478,0.20070767,0.20330417,0.20618945,0.20918968,0.21242887,0.21588792,0.21951205,0.22333981,0.22728249,0.23121049,0.2351504,0.23897927,0.24260718,0.24601665,0.24920577,0.25215,0.25490949,0.25728101,0.2595053,0.26150304,0.26341164,0.26531252,0.26720268,0.26900962,0.27088606,0.27266198,0.27435553,0.27601191,0.2774213,0.27863124,0.27977479,0.28070465,0.28122419,0.28168374,0.28219438,0.28241849,0.2824308,0.28218171,0.2818276,0.28131467,0.28063565,0.27956569,0.27816284,0.27674758,0.27516869,0.27355817,0.27179906,0.27008542,0.26829022,0.26674259,0.26527107,0.26363036,0.26222846,0.26106393,0.25994623,0.25885442,0.25773939,0.25687292,0.25606951,0.25531116,0.25461653,0.25390288,0.25340089,0.2529211,0.25243935,0.25182661,0.25129315,0.2509079,0.25050247,0.25004858,0.24954122,0.24911067,0.24866675,0.24795026,0.24732511,0.24662821,0.2458889,0.24530044,0.2449151,0.2443828,0.24400598,0.24382989,0.24372014,0.24356848,0.24356042,0.24363956,0.24388172,0.24428722,0.24473003,0.24548176,0.24638012,0.24734278,0.24850519,0.24980278,0.25124896,0.25296369,0.25496688,0.25705686,0.25917503,0.26145634,0.26398227,0.26654801,0.26918265,0.27209586,0.27499735,0.277937,0.28091535,0.28378788,0.28673279,0.28968972,0.2923024,0.29490864,0.29754275,0.29997775,0.3023203,0.30482084,0.30718502,0.30927074,0.31113598,0.312976,0.31476793,0.31652957,0.31833565,0.32013229,0.32215095,0.32461902,0.32773623,0.33123028,0.33506173,0.33959109,0.34434697,0.34937233,0.35453928,0.35984251,0.36561763,0.37176865,0.37785432,0.38391003,0.39009607,0.39620486,0.40202504,0.40769061,0.4131805,0.41858453,0.42364195,0.42831522,0.43269172,0.43694046,0.44081926,0.4440375,0.44684607,0.44948328,0.4517017,0.45340827,0.45490173,0.45637864,0.45766646,0.45844701,0.45904171,0.45982122,0.4604983,0.46090397,0.46095866,0.46121228,0.46161324,0.46191341,0.46200904,0.46200928,0.46188763,0.46150795,0.46097022,0.46045914,0.45983699,0.45913401,0.4580971,0.45721027,0.45648357,0.45563301,0.45448294,0.45332018,0.45243675,0.45152244,0.45040375,0.44915166,0.44813862,0.4472627,0.44607154,0.44481447,0.44383821,0.44280627,0.44152266,0.44035065,0.43953454,0.43848726,0.43735337,0.4363305,0.4354389,0.43491137,0.4344075,0.43347991,0.43276882,0.43222705,0.43179607,0.43127313,0.43088496,0.43051979,0.42998731,0.42948472,0.42906272,0.42882198,0.42836294,0.42784864,0.42747268,0.42724967,0.4269729,0.4265216,0.42620742,0.42601338,0.42568445,0.42521161,0.42483795,0.42453566,0.42409244,0.42341298,0.42318889,0.42299309,0.4223069,0.4214488,0.42077184,0.41997802,0.41907451,0.4179942,0.4169628,0.416141,0.4150607,0.41378781,0.41289198,0.41226906,0.41128328,0.41020057,0.40953156,0.40875208,0.40775147,0.40663594,0.40570596,0.40502444,0.40402883,0.40313151,0.40258542,0.40202743,0.40123403,0.40056393,0.39997023,0.39927095,0.39890173,0.3984929,0.3982237,0.39797097,0.39781585,0.39776093
10,AuroraNIR,barley,Unknown,France,2021,10.47,9.797,0.21467446,0.21497574,0.21564612,0.21633056,0.21695907,0.21771927,0.2186957,0.21989736,0.22112574,0.22233254,0.22357279,0.22482176,0.22604196,0.2271162,0.22814846,0.22916807,0.23003571,0.23070556,0.23112637,0.23147942,0.23167452,0.23183323,0.23177087,0.23157133,0.23138043,0.2310764,0.23055989,0.22988372,0.22941577,0.22895505,0.22839102,0.22779202,0.22725862,0.22669999,0.22617634,0.22552283,0.22483654,0.22406815,0.22319679,0.2222992,0.22152217,0.22080825,0.22006255,0.21929085,0.21871045,0.2180353,0.2174205,0.21676677,0.21604115,0.21516588,0.21447374,0.2138802,0.21316683,0.21223412,0.21133907,0.21070974,0.21014281,0.20945647,0.20868655,0.20798992,0.20735501,0.20684248,0.20640595,0.20576045,0.20513397,0.20458187,0.20405325,0.20351532,0.20290449,0.20234428,0.20193852,0.20159934,0.20124899,0.20088372,0.20061722,0.20020851,0.19985804,0.19981566,0.19984739,0.19977279,0.19969803,0.19977932,0.19993152,0.19999461,0.2000172,0.20037054,0.20107725,0.20199709,0.20311207,0.20458436,0.206431,0.20867567,0.21123749,0.21414213,0.21723098,0.22050393,0.22397366,0.22767164,0.23158371,0.23557408,0.23951639,0.24350013,0.24744369,0.25115103,0.25460726,0.25793675,0.26105931,0.26396948,0.26654962,0.2690143,0.27118394,0.27329713,0.27547801,0.27757815,0.2795372,0.28159383,0.28354207,0.2853834,0.2872003,0.28882709,0.29028693,0.29155815,0.29253095,0.29314345,0.29367638,0.2942026,0.29443857,0.29446816,0.29422116,0.29382104,0.29322389,0.29246035,0.29132938,0.28987873,0.28839207,0.28672189,0.28503031,0.28324199,0.28152516,0.27969855,0.27807269,0.27650589,0.27480024,0.27335152,0.27214321,0.27098557,0.26987264,0.26874804,0.26784638,0.26702058,0.26629528,0.26565799,0.26497123,0.26444054,0.2639558,0.26352003,0.26296768,0.26246127,0.26205984,0.26162815,0.26117703,0.26067761,0.26018524,0.2596986,0.25897959,0.25826168,0.25749129,0.2567724,0.25615245,0.25569883,0.25510654,0.25462645,0.25435087,0.25419042,0.2539663,0.2538904,0.25393397,0.25407732,0.25436479,0.2547529,0.25546691,0.25629762,0.25715831,0.25824314,0.25946674,0.26081011,0.26245075,0.26438549,0.26639023,0.26849583,0.2707836,0.2732639,0.2758019,0.27842239,0.28131923,0.28424346,0.28721076,0.29021704,0.29320064,0.29623759,0.29921609,0.30189815,0.30459359,0.30730569,0.30982918,0.31222618,0.31472474,0.31707346,0.31922624,0.32118681,0.32303864,0.32484034,0.32661355,0.32837665,0.33005574,0.33190134,0.33420703,0.33723894,0.34052008,0.34397599,0.34820908,0.35266334,0.3573322,0.36215094,0.36712623,0.37260297,0.37846822,0.38421974,0.38993844,0.3958444,0.40172654,0.40733892,0.41282523,0.41819376,0.4234719,0.42840949,0.43298939,0.43722707,0.44131434,0.44508964,0.44831175,0.45108867,0.45363301,0.45579425,0.45750925,0.45897549,0.46038499,0.46173036,0.46254799,0.46311834,0.46391699,0.46465209,0.4651159,0.46521005,0.46550056,0.46591547,0.46622097,0.46635818,0.46644771,0.46642205,0.46614075,0.46575281,0.46537572,0.46493414,0.46450752,0.46365339,0.46294415,0.46243787,0.4617835,0.46091947,0.46001485,0.45925358,0.45846289,0.4575575,0.45647997,0.4555122,0.45479447,0.45376307,0.45265093,0.45191473,0.45102543,0.44990522,0.4489105,0.44806936,0.44714317,0.44616273,0.44517338,0.44442099,0.44394711,0.44345436,0.4426524,0.44208264,0.44152796,0.4410775,0.4406994,0.44037178,0.43997657,0.43948957,0.43916342,0.43880138,0.4385539,0.43815634,0.43775332,0.43733603,0.43713227,0.4370105,0.43668506,0.43638286,0.43621466,0.436003,0.43564469,0.43522868,0.43494132,0.43461671,0.43403658,0.43384475,0.43352768,0.43280205,0.43207562,0.43137631,0.43059796,0.42972252,0.42862833,0.42760852,0.42668334,0.42561355,0.42443526,0.42345783,0.42277792,0.42178154,0.42067608,0.41994843,0.41910076,0.41805002,0.41691008,0.41592842,0.41511974,0.41403207,0.41307873,0.41244906,0.41178581,0.41095817,0.4102107,0.40949526,0.40871301,0.40827817,0.40765202,0.40725049,0.40693828,0.40663028,0.40638143
11,AuroraNIR,barley,Unknown,France,2021,11.196,9.589,0.17670788,0.17737444,0.17825109,0.17913251,0.18010861,0.18119167,0.18232797,0.18364963,0.18505073,0.18645993,0.18789281,0.18928491,0.19062068,0.1918415,0.19302385,0.19414403,0.19509725,0.19587848,0.19641136,0.19685048,0.19710776,0.19730775,0.197272,0.19710587,0.19698358,0.19676352,0.1963031,0.19561514,0.19506167,0.19453198,0.19396213,0.19338,0.19286171,0.19231431,0.19178469,0.19109803,0.19034649,0.18950935,0.18867299,0.18788917,0.18709067,0.18623334,0.18540905,0.18467869,0.18422019,0.18359876,0.18291351,0.18222895,0.18156797,0.18078174,0.18012466,0.17947637,0.17873655,0.17786737,0.17700359,0.17632852,0.17569497,0.17496479,0.17420058,0.17355797,0.17299782,0.1725163,0.17206952,0.17143527,0.17085658,0.17037241,0.16987781,0.16936292,0.16888873,0.16850045,0.16814095,0.16781744,0.16754603,0.16727063,0.16711159,0.16688505,0.16670159,0.16672784,0.16681474,0.16684948,0.16694438,0.16716802,0.16737404,0.16755533,0.16781494,0.16840318,0.16929245,0.17035666,0.17165706,0.17338686,0.17551501,0.17805287,0.18092969,0.18415743,0.18758394,0.19124618,0.1951229,0.19918714,0.20342918,0.20773602,0.2120021,0.21624407,0.22033018,0.22421439,0.22789413,0.23134252,0.23452322,0.23749061,0.24003725,0.24242777,0.2446283,0.24679215,0.24896437,0.25104496,0.25299323,0.25503871,0.25696331,0.25876999,0.26055574,0.26214275,0.26354688,0.26477477,0.26573941,0.26637909,0.26691672,0.26742613,0.26769653,0.26776156,0.26751468,0.26716843,0.26665184,0.26591399,0.26480481,0.26340175,0.26196682,0.26035085,0.25871351,0.25696912,0.25530854,0.25357369,0.25203851,0.25055161,0.24892816,0.24755183,0.24639878,0.24529012,0.24426919,0.24327612,0.24244829,0.24164499,0.24093963,0.24034408,0.23972574,0.23927571,0.2388542,0.2384674,0.23797572,0.23753341,0.23717663,0.23676126,0.23638096,0.23600365,0.23557255,0.23516601,0.23459578,0.23400201,0.23331486,0.23267263,0.23217025,0.23183119,0.23133032,0.23100494,0.23087992,0.23080201,0.23070693,0.23079589,0.23098427,0.2312748,0.23170273,0.23221551,0.23308206,0.23409241,0.23511955,0.23631588,0.23766303,0.23920788,0.24104126,0.24310943,0.24519919,0.24740133,0.24980395,0.25239119,0.25500959,0.257687,0.26062271,0.26356211,0.26651514,0.2694847,0.27243286,0.27543753,0.2783682,0.2809594,0.28354508,0.2861729,0.28866729,0.29104921,0.29354265,0.29592204,0.29806218,0.29998961,0.30185461,0.30363798,0.30542031,0.30731755,0.30919844,0.31122634,0.31365579,0.31682104,0.32037959,0.32418799,0.32859227,0.33323154,0.33816525,0.34320477,0.34840453,0.3540571,0.35998732,0.36577982,0.37154967,0.3774904,0.38333717,0.38885084,0.39421171,0.39945054,0.40454477,0.40929791,0.4137429,0.41779751,0.42171478,0.42539191,0.42853859,0.43123072,0.43374184,0.43596154,0.43765873,0.43909535,0.44051775,0.44180918,0.44266057,0.44332001,0.44411054,0.44490001,0.44542232,0.44550857,0.44583318,0.44631284,0.44669771,0.44690987,0.44698751,0.44695872,0.44670901,0.44626045,0.44588512,0.4454053,0.44479612,0.4439466,0.44320226,0.44255096,0.4418686,0.44090307,0.43994889,0.43923911,0.43830931,0.43733594,0.43626982,0.43523589,0.43451959,0.43347803,0.43230736,0.43155175,0.43069142,0.42953151,0.42842531,0.42754617,0.42657933,0.425603,0.42466584,0.42385679,0.42333496,0.42282248,0.42198744,0.42141309,0.42083752,0.42032158,0.41986564,0.41950917,0.41911423,0.4185881,0.41814613,0.41766161,0.41737899,0.41696954,0.41650566,0.41613498,0.41592583,0.41571108,0.41532773,0.4150005,0.41481718,0.41455039,0.41413516,0.41381839,0.41352078,0.41316271,0.41266561,0.41238067,0.41205004,0.41142172,0.41075501,0.41006672,0.40927681,0.40847972,0.40751654,0.40653944,0.40578565,0.40481654,0.40366551,0.40283856,0.4021973,0.40127835,0.40031144,0.39967865,0.39892256,0.39794099,0.3969045,0.39607161,0.39540136,0.39450058,0.39363164,0.39308786,0.39262998,0.39184043,0.39114016,0.39059272,0.39001268,0.38971347,0.38925016,0.38900641,0.38888708,0.3887547,0.38853762
12,AuroraNIR,barley,Unknown,France,2021,11.569,12.155,0.19106457,0.19142836,0.19198549,0.19249704,0.19303294,0.19375412,0.19468476,0.19577937,0.19684501,0.19793101,0.19908167,0.20014136,0.20110251,0.20198758,0.20287983,0.20372257,0.20437543,0.20483345,0.20513323,0.20546198,0.20556632,0.20554563,0.20538805,0.2052211,0.20512076,0.20486175,0.20426264,0.20345886,0.20291527,0.20245463,0.20193793,0.20134844,0.20078819,0.20024109,0.19973974,0.19906375,0.19835392,0.1976127,0.19681601,0.19598483,0.19515814,0.19434488,0.19362517,0.19293855,0.19237377,0.19168346,0.19106176,0.1903905,0.18966179,0.18885536,0.18820687,0.18752833,0.18677928,0.18595238,0.18509522,0.1843833,0.18374689,0.18306032,0.18234847,0.18167,0.18098739,0.18049574,0.18013299,0.17947623,0.17882571,0.17833351,0.17782247,0.17725238,0.17675476,0.17635173,0.17592373,0.17554401,0.17526774,0.17495503,0.17471001,0.1743965,0.17412376,0.1740517,0.17406128,0.17401642,0.17396088,0.17406836,0.17428644,0.17439732,0.17443664,0.17483546,0.17558849,0.17650518,0.1776226,0.17913064,0.18100968,0.18326701,0.18581551,0.18865217,0.19164369,0.19487995,0.19831851,0.20188984,0.20561948,0.20942558,0.21320565,0.21702135,0.22077297,0.22434075,0.22769402,0.2308481,0.2337895,0.23657274,0.2389645,0.24119699,0.24320813,0.24515878,0.24711622,0.24900518,0.25076553,0.25260732,0.25438499,0.25609693,0.2577371,0.25911942,0.26030454,0.26136345,0.26220816,0.26273113,0.263127,0.26348856,0.26366547,0.26366884,0.26335627,0.2629517,0.26240605,0.2616787,0.26058236,0.25920162,0.25784168,0.25626183,0.25459725,0.25291067,0.25132558,0.24957216,0.24802071,0.24656229,0.24498315,0.24363865,0.24252515,0.24150498,0.24048063,0.23935659,0.23847495,0.23768763,0.23698597,0.23638411,0.2357354,0.23522589,0.23478292,0.23437874,0.23379518,0.23328979,0.23295519,0.2325979,0.23220778,0.23177591,0.23139535,0.23100825,0.2303604,0.22975758,0.22910686,0.22846326,0.22789913,0.22750932,0.2270114,0.22666086,0.22650993,0.22643811,0.22629905,0.22631514,0.2264531,0.22668682,0.22706665,0.22754586,0.22831145,0.22919479,0.23014812,0.23129275,0.23255886,0.23396343,0.23562695,0.23756191,0.23957989,0.24167779,0.24392016,0.24633652,0.24884471,0.25143135,0.25423336,0.25701687,0.25986612,0.26279679,0.26566154,0.26853403,0.27134311,0.27388239,0.27643368,0.27901,0.28144801,0.28371209,0.28606665,0.28840065,0.29052752,0.29242396,0.2942608,0.29607978,0.2978808,0.2996895,0.30147317,0.3034642,0.30592507,0.30913481,0.31271717,0.31655896,0.32106739,0.32574594,0.33067936,0.33582279,0.34109181,0.34680757,0.35290259,0.35892722,0.36490667,0.37102896,0.3771449,0.38295215,0.38854676,0.39395952,0.39928642,0.40429637,0.40895438,0.41327211,0.41745979,0.42131421,0.42452312,0.42737657,0.43008277,0.43234223,0.43411499,0.43565914,0.43714792,0.43848324,0.43937254,0.44005561,0.44081852,0.44149569,0.44200402,0.44220099,0.44246751,0.44288346,0.44322938,0.44332135,0.44334933,0.44332331,0.44304594,0.44252181,0.44204587,0.4415639,0.44103488,0.43999997,0.43909302,0.43844244,0.437691,0.43662986,0.43556219,0.43475822,0.43384033,0.43276349,0.43157825,0.43054724,0.42962426,0.42850089,0.42737424,0.42642462,0.42542905,0.42417943,0.42298493,0.42211676,0.42108598,0.41999456,0.41896531,0.41803643,0.41745627,0.41692752,0.41602406,0.41532043,0.41469181,0.41414544,0.41359112,0.41321772,0.41279602,0.41220626,0.41173771,0.41126123,0.41095471,0.41044217,0.40986487,0.40953341,0.40924838,0.40888169,0.40852711,0.4082619,0.40796742,0.40753746,0.40707159,0.4066276,0.40636522,0.40600467,0.4052887,0.40503168,0.40468335,0.40387139,0.40301713,0.40225691,0.4014146,0.40047985,0.39937288,0.39836517,0.39741886,0.39629242,0.3950724,0.3940925,0.39338213,0.39238527,0.39126202,0.39046133,0.38960811,0.38854203,0.38737416,0.38638696,0.38556403,0.38441053,0.38353911,0.38295484,0.38215494,0.38144332,0.38059992,0.37980476,0.3791346,0.3786892,0.37813833,0.37766844,0.37726882,0.3770116,0.37669918
13,AuroraNIR,barley,Unknown,Italy,2017,9.571,12.293,0.16641879,0.16655475,0.16706882,0.16759944,0.16805649,0.1686675,0.1695407,0.17063387,0.17172796,0.17281608,0.17396335,0.17512052,0.17628562,0.1774056,0.17849545,0.17946124,0.18024279,0.18089795,0.18135731,0.18175589,0.18196094,0.18210389,0.18207785,0.18197469,0.18189473,0.18168722,0.18123993,0.18063375,0.18026415,0.17994352,0.17953521,0.17902975,0.17854391,0.17808528,0.17771414,0.17721811,0.1766168,0.17584887,0.17506662,0.17437036,0.1736934,0.17298974,0.17234202,0.17174537,0.17132629,0.1707378,0.17013802,0.16954777,0.1689764,0.16829799,0.16775566,0.16720186,0.16650885,0.16564539,0.1648175,0.16422948,0.16370021,0.16307005,0.16238365,0.16176678,0.16118897,0.16072465,0.16032757,0.1597041,0.1591025,0.15859593,0.15809111,0.15755421,0.15698718,0.15647618,0.15605117,0.15570407,0.15540388,0.15504788,0.15476197,0.15440995,0.15411484,0.15404728,0.15407769,0.154064,0.15404849,0.15417223,0.15436228,0.15446217,0.15452974,0.15495063,0.15572187,0.1566703,0.15780133,0.15928683,0.16112241,0.1632953,0.16569576,0.16836289,0.17117223,0.17415605,0.17726101,0.18044801,0.18380655,0.18729533,0.19080922,0.19436373,0.1978347,0.20119324,0.20442568,0.20746994,0.21031201,0.21304345,0.21547225,0.21777786,0.21979964,0.22175302,0.22374871,0.22566254,0.22746918,0.22942083,0.23125972,0.2329648,0.2346399,0.23610218,0.23736773,0.23846781,0.23931487,0.2398407,0.24031499,0.2408078,0.24104363,0.2411032,0.24091941,0.240629,0.24016996,0.23954768,0.2385993,0.23735867,0.23604161,0.23453163,0.23301619,0.23138939,0.22981238,0.22812907,0.22668603,0.22530383,0.22371764,0.22238258,0.22131117,0.22027241,0.2192425,0.21817721,0.21734238,0.21657564,0.21588406,0.21528937,0.21466266,0.21420132,0.21381335,0.21347712,0.21298404,0.21251363,0.21215308,0.21178508,0.21140271,0.21098168,0.21060428,0.21020605,0.20952567,0.20885924,0.20813945,0.20743309,0.20678267,0.20629725,0.20570825,0.20523764,0.20495506,0.20476775,0.20451368,0.20437498,0.20431106,0.20437315,0.20460469,0.20491272,0.20547777,0.20613798,0.20685898,0.20777892,0.20881157,0.20996243,0.21139446,0.21307881,0.21478847,0.2165992,0.21859911,0.22080387,0.22312561,0.22555546,0.22823851,0.23094501,0.23371114,0.23656012,0.23945926,0.24241711,0.24527609,0.24783975,0.25044447,0.25309017,0.25554118,0.25785226,0.26028544,0.26261893,0.26468894,0.26649803,0.26820326,0.26981395,0.27132374,0.27277887,0.27418149,0.27572042,0.27761349,0.28016579,0.28302181,0.28605482,0.28966895,0.29355466,0.29774091,0.3019821,0.30638334,0.31129467,0.31660834,0.32199541,0.32747298,0.33316469,0.33891308,0.34454158,0.35016242,0.35570073,0.36122498,0.36647114,0.37139833,0.37607589,0.38060492,0.3847841,0.38844365,0.39157143,0.39443985,0.3970232,0.39906508,0.40081915,0.4025268,0.40404609,0.40509641,0.40596154,0.40695074,0.40783247,0.40848243,0.40879589,0.40923423,0.40977257,0.41021049,0.41045213,0.41057336,0.41064876,0.41055101,0.4102281,0.4099656,0.40962267,0.40916273,0.40840539,0.40782973,0.40737757,0.40674087,0.40592456,0.40510955,0.40444094,0.4037028,0.40285426,0.40184087,0.40092507,0.40028328,0.39930272,0.39817876,0.39738697,0.39643481,0.39530993,0.39436442,0.39354077,0.39259097,0.39164582,0.39074531,0.3899672,0.38951609,0.3890394,0.38818175,0.38769388,0.38721713,0.38674381,0.38634828,0.38616854,0.38583636,0.38529184,0.38495344,0.38459736,0.38439626,0.38402995,0.38361478,0.38332257,0.38323936,0.38314566,0.38282761,0.3825677,0.3824195,0.38218984,0.38184083,0.38151759,0.38128322,0.38101411,0.38053504,0.38031849,0.38003409,0.37936378,0.37862855,0.37795773,0.37712553,0.37627816,0.37529811,0.37422433,0.37333006,0.37227634,0.37106627,0.37012169,0.36940444,0.36842865,0.36735389,0.36656401,0.36569703,0.36465511,0.36357003,0.36266682,0.36187264,0.36076316,0.35987398,0.35936597,0.35877341,0.35798821,0.35726064,0.35666683,0.35604995,0.35566691,0.35526335,0.35499206,0.35472494,0.35451964,0.35433471
14,AuroraNIR,barley,Unknown,Italy,2017,11.6,10.15,0.23817791,0.23851787,0.23900037,0.23967996,0.24055764,0.24162538,0.24275376,0.24391291,0.24511501,0.24630837,0.24752699,0.24876307,0.24988697,0.25083733,0.25166133,0.25245333,0.25322339,0.25381938,0.25423431,0.25443926,0.25445428,0.2543678,0.25420928,0.25405693,0.25388256,0.25348881,0.25282675,0.25216323,0.25164625,0.25108841,0.25041249,0.24964274,0.24893288,0.24824627,0.24759635,0.24683577,0.24595885,0.24504653,0.24424134,0.24352446,0.24267125,0.24168865,0.24072698,0.23984143,0.23898551,0.2381634,0.23740397,0.23654774,0.23565648,0.23479393,0.23396754,0.23322459,0.23245925,0.23160334,0.23075692,0.22995187,0.22923748,0.22853704,0.22768004,0.22691041,0.22629906,0.22567786,0.22500446,0.2242651,0.2235246,0.22287054,0.22226281,0.22181264,0.22128272,0.22058855,0.22007683,0.21975401,0.2194781,0.21915302,0.21876523,0.2184774,0.21818504,0.21780553,0.2174439,0.21720591,0.21697704,0.21671642,0.21656629,0.21658543,0.21680185,0.21724653,0.21795183,0.21902288,0.22035477,0.22195838,0.22393616,0.22642033,0.229298,0.23243906,0.23570067,0.23906332,0.24258307,0.24630131,0.2502054,0.25428215,0.25843754,0.26250786,0.26650351,0.2703768,0.27404651,0.27747759,0.28069016,0.28368294,0.2864581,0.28899017,0.29133987,0.29355529,0.2957046,0.297748,0.29973397,0.3016941,0.30371466,0.30572927,0.30752569,0.30902663,0.31037,0.3115865,0.31260401,0.31322479,0.31361985,0.3138335,0.31396371,0.31395569,0.31364915,0.31316704,0.31252831,0.3116563,0.31053293,0.30910143,0.30743057,0.30572376,0.30393475,0.30212662,0.3003228,0.29846376,0.29677135,0.29536197,0.29386148,0.29234603,0.29105836,0.28988299,0.28876397,0.28772181,0.28671291,0.2857447,0.28497246,0.28418523,0.28331709,0.28269187,0.2821863,0.28152683,0.28089201,0.2803455,0.27983961,0.27939653,0.27900201,0.27853838,0.27806345,0.27747837,0.27685419,0.27616888,0.27549627,0.2747874,0.27414864,0.27357677,0.27303421,0.27261326,0.27229956,0.27203715,0.27187499,0.27181619,0.27188161,0.27207148,0.27226695,0.27261528,0.27314496,0.2739473,0.27494445,0.27607143,0.27732536,0.27881491,0.28060302,0.28257787,0.28451049,0.28660023,0.28894892,0.29156265,0.29432201,0.29712805,0.29998896,0.30301762,0.30619383,0.30900013,0.31175697,0.31472036,0.31788808,0.32081652,0.32368734,0.32682061,0.3299033,0.33269179,0.33514786,0.33748072,0.33975285,0.34178653,0.34361863,0.34545094,0.34728825,0.34920532,0.35134017,0.35369408,0.35642433,0.35948101,0.36284351,0.36670116,0.37106019,0.37573001,0.38070858,0.38591063,0.39150584,0.39739889,0.40350649,0.40962738,0.41572434,0.42202228,0.4283199,0.43451387,0.44045091,0.44630712,0.45196417,0.45716462,0.46201578,0.46660367,0.47094351,0.47484764,0.47819158,0.48106948,0.48358342,0.48591462,0.48790982,0.48944026,0.49086654,0.49199361,0.49291512,0.49376991,0.49447197,0.49524701,0.49593249,0.49640024,0.49679154,0.49713632,0.49747664,0.49767393,0.49764696,0.4974789,0.49730605,0.49707073,0.49666828,0.49612725,0.49558631,0.49501532,0.49440908,0.49376613,0.49320421,0.49262491,0.49188772,0.49105197,0.49030393,0.48963752,0.48865551,0.48764086,0.48671797,0.48571733,0.48464096,0.48374411,0.48298025,0.48205808,0.48093772,0.47995228,0.47913072,0.47819054,0.47725216,0.47646391,0.47589904,0.47545835,0.47491568,0.47428554,0.47380441,0.4734444,0.47301829,0.47266394,0.47247362,0.47240615,0.47190371,0.47125676,0.47107437,0.4710418,0.47067878,0.47032687,0.47011974,0.46980104,0.4694249,0.469071,0.46876076,0.46852729,0.46815291,0.46762601,0.46723625,0.46713653,0.4668009,0.4662675,0.46592313,0.46568418,0.46499282,0.46401459,0.46319696,0.4626137,0.46174195,0.46041942,0.45919055,0.45838952,0.45710376,0.45580533,0.45489445,0.45384988,0.45272806,0.45152503,0.45044386,0.44949406,0.44827449,0.44717926,0.44625577,0.44517121,0.44422334,0.44332665,0.44240367,0.44153252,0.44072321,0.43992648,0.43922806,0.43854076,0.43784499,0.43710598,0.43663457,0.43625063,0.43577147
15,AuroraNIR,barley,Unknown,Italy,2017,13.95,8.95,0.21022841,0.21061422,0.21120779,0.21191795,0.21271157,0.21368007,0.21474077,0.21585767,0.21700118,0.21807632,0.21922351,0.22056532,0.22188993,0.22301076,0.22392219,0.22471485,0.22547296,0.22609784,0.22658555,0.22689949,0.22704411,0.22708397,0.22702357,0.22693832,0.22681706,0.22652222,0.22603053,0.22550878,0.22504857,0.22451641,0.22386424,0.22310822,0.22240889,0.22174333,0.22109483,0.22029582,0.21942051,0.21858615,0.21783255,0.21712106,0.21632543,0.21545631,0.21460244,0.21382195,0.21308558,0.21236679,0.21169227,0.21097155,0.21024144,0.20945303,0.20864579,0.20795198,0.20721176,0.20632003,0.20547114,0.20472933,0.20408484,0.20346056,0.20270683,0.20198585,0.20132762,0.2006927,0.20010754,0.19952583,0.19896021,0.19845055,0.19796769,0.19765615,0.19732434,0.19685701,0.19651186,0.19634198,0.19627821,0.19618371,0.19600688,0.19590856,0.19580284,0.19562709,0.1954695,0.19545178,0.19555295,0.19573097,0.19604009,0.19645977,0.19699152,0.19774981,0.19877402,0.2000988,0.20167385,0.20358622,0.20592493,0.2087981,0.2120731,0.21560818,0.2192841,0.22319211,0.22738072,0.23173842,0.23618843,0.24071772,0.24528594,0.24972908,0.25399646,0.25804424,0.26183832,0.2654227,0.26880735,0.27191031,0.27474466,0.27732888,0.27976653,0.28210512,0.28437877,0.28650948,0.28857872,0.29072762,0.29296049,0.29509765,0.29699498,0.29861376,0.30007952,0.30143616,0.30261579,0.30339774,0.30395967,0.30435103,0.30461332,0.30468494,0.30445251,0.30404654,0.30347726,0.30265498,0.30154476,0.30008355,0.29836485,0.29661423,0.29478905,0.29289916,0.29097053,0.28902438,0.28726968,0.28578478,0.28419352,0.28260452,0.28128791,0.2800931,0.27894571,0.27787307,0.27684447,0.27587333,0.27511191,0.27434936,0.27351314,0.27291533,0.27247515,0.27193841,0.27141038,0.2709443,0.27049762,0.27002695,0.26954082,0.26898822,0.26839852,0.26772025,0.26710978,0.26645562,0.26576963,0.26502463,0.26438984,0.26387656,0.26339826,0.26303107,0.26277703,0.26261491,0.26258188,0.26265964,0.26285997,0.26318875,0.26354912,0.26411366,0.26486099,0.26584283,0.26700404,0.26831722,0.2698026,0.27155614,0.27357733,0.27577126,0.27804068,0.2805317,0.28323004,0.28606513,0.2889958,0.29201066,0.29513428,0.29843903,0.30193412,0.30518153,0.30835673,0.31161946,0.31500137,0.3181428,0.32121345,0.32445702,0.32759058,0.33044061,0.33301666,0.33547741,0.33785844,0.3399877,0.34191862,0.34385306,0.34578341,0.34777722,0.35004854,0.35261256,0.35554144,0.35882857,0.36245203,0.36654818,0.37117136,0.37615699,0.38145337,0.38685253,0.39267421,0.39894047,0.40537366,0.41171727,0.41801327,0.42459816,0.43114394,0.43749568,0.44356978,0.44960144,0.45545048,0.46079263,0.46569642,0.47032303,0.47473928,0.47872728,0.48211709,0.48503035,0.48762569,0.49005976,0.49208114,0.49355298,0.49497777,0.49615669,0.49708724,0.49785215,0.49850872,0.49925229,0.49983692,0.50016683,0.50048524,0.50088143,0.50135607,0.50163192,0.50166321,0.50158173,0.50142503,0.5010426,0.50042552,0.49979103,0.49927187,0.49863303,0.49781543,0.49702099,0.4963474,0.49555621,0.4944669,0.49334967,0.49240279,0.49156111,0.49041203,0.48928735,0.48827878,0.48714989,0.48587012,0.48470828,0.4836787,0.48257217,0.48137113,0.4801968,0.47910127,0.47800735,0.47694555,0.47600764,0.47524789,0.47458866,0.47392607,0.47317418,0.47247952,0.47193527,0.47144723,0.47098765,0.470514,0.47016576,0.46951985,0.46878567,0.46844244,0.46823043,0.46772975,0.46722534,0.4668102,0.46635935,0.46584547,0.46537375,0.46502107,0.46466061,0.46422246,0.46370012,0.46322447,0.46293893,0.46238789,0.46167737,0.46118674,0.46075866,0.45996836,0.45893669,0.45796809,0.45718697,0.45616597,0.45483407,0.45368287,0.45284748,0.45150489,0.45015919,0.44918817,0.44807401,0.44684085,0.44565344,0.44468749,0.44372621,0.44252762,0.4414565,0.44053441,0.43950075,0.43870008,0.43801644,0.43725604,0.43648121,0.43587103,0.43538004,0.43500996,0.43453082,0.43393701,0.43355438,0.43332267,0.43306315,0.43286341
16,AuroraNIR,barley,Unknown,Italy,2017,10.35,12.2,0.19040093,0.19079243,0.19132383,0.19197062,0.19269539,0.19350378,0.19433579,0.19526325,0.19628644,0.19728391,0.19831082,0.19941604,0.20049617,0.20147479,0.20227967,0.20294766,0.20362048,0.20423907,0.20478685,0.20519483,0.20542188,0.20553437,0.20557125,0.20563,0.20570689,0.20562801,0.20533821,0.20502351,0.2047769,0.20442054,0.20393239,0.20342508,0.2030001,0.20249824,0.20196192,0.20132081,0.20058408,0.19982296,0.19915187,0.19856347,0.19789125,0.19712868,0.19636667,0.19565752,0.19497634,0.1943458,0.19380285,0.19317974,0.19250226,0.1917852,0.19108424,0.19051962,0.18992537,0.189174,0.18839838,0.18763717,0.18690301,0.18614839,0.18526115,0.18446819,0.18381834,0.18316038,0.1824844,0.18181711,0.1811963,0.18064834,0.18010549,0.1796888,0.17923209,0.17864417,0.17819092,0.17788301,0.17762144,0.17734747,0.17703755,0.17678471,0.17648047,0.17607929,0.17571162,0.17550996,0.17539439,0.17529514,0.17528199,0.1754137,0.17572768,0.17622133,0.17689958,0.17785585,0.17900419,0.18038,0.18209581,0.18426497,0.18673147,0.18935248,0.19201574,0.1948047,0.19778699,0.20090336,0.20408393,0.20732807,0.21067178,0.21398295,0.21719642,0.22030281,0.22328784,0.22613369,0.22884813,0.23139676,0.23374651,0.23587084,0.23788482,0.23981175,0.24165085,0.2433579,0.24502209,0.24674127,0.24851365,0.25018102,0.2516349,0.25282627,0.25383839,0.25475791,0.25556019,0.25602037,0.25630799,0.25647491,0.25658324,0.25656968,0.25629613,0.25588366,0.2553677,0.2547158,0.25383165,0.25258091,0.251129,0.24968912,0.24814303,0.24653764,0.24491715,0.24326073,0.24176197,0.24052311,0.23922941,0.23791343,0.23675123,0.23568511,0.23469274,0.23377898,0.23285043,0.23193026,0.23125507,0.23058672,0.22982165,0.22929563,0.22891369,0.22841461,0.22794382,0.2275397,0.22713833,0.22674842,0.22636342,0.22588858,0.22539827,0.22483078,0.22428407,0.22366804,0.22301708,0.22230631,0.22168866,0.221167,0.2206576,0.22022529,0.2198766,0.21961632,0.21948621,0.21944836,0.2194775,0.21958093,0.21968074,0.21996391,0.22040103,0.22101958,0.22174694,0.22261667,0.22365576,0.22486307,0.22630067,0.22792472,0.22958124,0.23140895,0.23342544,0.23560798,0.2379106,0.24029137,0.24275416,0.24542795,0.24834798,0.25105256,0.25372678,0.25652501,0.25945669,0.26217338,0.26487124,0.26779759,0.27057675,0.27307305,0.27537343,0.27752683,0.27953744,0.28126067,0.28276184,0.2842637,0.28575355,0.28724915,0.28893781,0.29083824,0.29303664,0.29549432,0.29819304,0.30131578,0.30496943,0.30893126,0.31308416,0.3173573,0.32211146,0.32735944,0.33284786,0.33836088,0.34395686,0.3499411,0.35598487,0.36197665,0.36787677,0.37387297,0.3797304,0.38512972,0.39029664,0.39520639,0.39984488,0.40414736,0.40784732,0.41104931,0.41394913,0.41660553,0.41887006,0.42067,0.42237246,0.42375147,0.42486718,0.42585924,0.42668784,0.42754987,0.42825568,0.4287267,0.4291963,0.42970487,0.43022308,0.43057099,0.43067837,0.43063569,0.43053189,0.43024129,0.42977056,0.42930466,0.42885473,0.42829904,0.42765889,0.42702994,0.42648357,0.42582148,0.4249016,0.42396557,0.4231703,0.42244726,0.42141721,0.42041716,0.41953212,0.41853851,0.41743866,0.4164902,0.4156383,0.41465709,0.41364551,0.41264629,0.4116984,0.41077566,0.40981114,0.4089981,0.40842921,0.4079141,0.40738669,0.40682277,0.40635893,0.40600333,0.4056516,0.40533248,0.40507358,0.40502068,0.40462556,0.40403208,0.40378636,0.40375996,0.4034594,0.40315768,0.40297633,0.40270737,0.4024072,0.40214282,0.40190303,0.40167531,0.40136847,0.40098825,0.4006899,0.40053537,0.4001725,0.3996186,0.39914861,0.3988418,0.39818138,0.39723289,0.39633667,0.39559743,0.3946389,0.39334631,0.39219314,0.39142063,0.39009106,0.38876989,0.38788322,0.38679567,0.38560814,0.38437971,0.38330212,0.38232994,0.38107967,0.37995619,0.3789928,0.37786356,0.37692776,0.37606537,0.37516639,0.37427536,0.37340829,0.37275058,0.37219712,0.37148678,0.37076896,0.37018758,0.36978242,0.36939126,0.36899424
17,AuroraNIR,barley,Unknown,Italy,2017,12.35,9.85,0.22516845,0.22555885,0.22607806,0.22672187,0.22748388,0.22840795,0.22940356,0.23046356,0.2315883,0.23270309,0.23389594,0.23522227,0.23648924,0.23755184,0.23843275,0.23922269,0.2399482,0.24049784,0.24093451,0.24123463,0.24135792,0.24138552,0.24137037,0.24134442,0.24123241,0.2409292,0.24045891,0.23999983,0.23963401,0.23919328,0.23863322,0.2380127,0.23746976,0.23692602,0.23640189,0.23577149,0.23502821,0.23424387,0.23354761,0.2329351,0.23222637,0.23140632,0.23056552,0.22978403,0.22905225,0.22832817,0.22762322,0.22684623,0.22605671,0.22524405,0.22443238,0.22372079,0.22297302,0.22210059,0.22126098,0.22050081,0.21982569,0.21918225,0.21844764,0.2178086,0.2172682,0.21664394,0.21594706,0.21527712,0.21467519,0.21413797,0.21361691,0.21324517,0.21282023,0.2122439,0.21181011,0.21154357,0.211345,0.21113369,0.21087988,0.21069771,0.21048126,0.21017498,0.20989738,0.20977603,0.20973942,0.20973805,0.20985819,0.21009463,0.21044366,0.21098268,0.21173675,0.21275136,0.21396279,0.21544255,0.21728599,0.21961498,0.22231273,0.2252285,0.2282393,0.23147546,0.23500749,0.23872037,0.2425233,0.24640125,0.25035134,0.25422817,0.25797746,0.26155534,0.26492095,0.26809362,0.27110466,0.27392048,0.27650261,0.27883363,0.2810697,0.28324872,0.28535771,0.28732306,0.28922117,0.29116368,0.29317465,0.29510877,0.29682639,0.29826793,0.29952964,0.30068821,0.30170903,0.30237028,0.3028402,0.30315366,0.3033334,0.30332923,0.30306271,0.30266225,0.30212811,0.30136579,0.30031538,0.2989125,0.29733518,0.29579085,0.29414371,0.29242,0.29066044,0.28886473,0.28725603,0.285934,0.28452224,0.2830866,0.2818681,0.28078726,0.27976802,0.2787782,0.27781153,0.27691016,0.27623156,0.27555847,0.27479649,0.27422562,0.27379128,0.27327275,0.27276635,0.27231377,0.27187189,0.27141961,0.27095827,0.27041987,0.26986164,0.26922655,0.26864213,0.26802161,0.26737413,0.26663983,0.26601031,0.26550204,0.26500419,0.26461542,0.26433912,0.2641165,0.26399621,0.26398125,0.26408878,0.26430798,0.26452577,0.26491368,0.26546574,0.26624548,0.26719403,0.26826835,0.26947725,0.27092192,0.27263415,0.27451998,0.27643409,0.2785432,0.28086287,0.28332615,0.28587115,0.28847486,0.29117629,0.29407591,0.2971817,0.30002952,0.30282497,0.30573788,0.30877849,0.31158465,0.31434533,0.31732449,0.32021675,0.32281697,0.32512352,0.3273375,0.32948008,0.33134094,0.33298197,0.33465114,0.33635932,0.33813024,0.34015173,0.34241474,0.3449659,0.34781766,0.35098785,0.35463572,0.35877642,0.36323079,0.36797285,0.37284502,0.37813354,0.38384071,0.38976991,0.39567226,0.40154931,0.40769666,0.41383383,0.41983145,0.42559606,0.43135059,0.43693915,0.44203767,0.44672972,0.45113617,0.455322,0.4591189,0.46233699,0.46510518,0.4675903,0.46988937,0.47179854,0.47319564,0.47449672,0.47558442,0.47647354,0.47718638,0.47779629,0.47848246,0.4789919,0.47927251,0.47959843,0.48000863,0.48042044,0.48058727,0.48053423,0.48043409,0.48030278,0.47996262,0.47940353,0.47883737,0.47833842,0.47772554,0.47696528,0.4761914,0.47552601,0.47478878,0.47381324,0.47280037,0.47197261,0.47125331,0.47016382,0.4690471,0.46807563,0.46703544,0.46582308,0.46476391,0.46383888,0.46279448,0.46171334,0.46072224,0.4597646,0.45868546,0.45767176,0.45681924,0.45614627,0.45558661,0.45502111,0.45438051,0.45381591,0.45337781,0.45294121,0.45255893,0.45224071,0.4520312,0.45149511,0.45085362,0.45059621,0.45047393,0.4500775,0.44971722,0.44946256,0.44908574,0.44869083,0.44836774,0.44810426,0.44790259,0.44759572,0.44713646,0.44674036,0.44661471,0.44630131,0.44578224,0.44536752,0.44506606,0.44443253,0.44359791,0.4428516,0.44217688,0.44133538,0.44020635,0.43916109,0.43846828,0.43729919,0.43614161,0.43536031,0.43441337,0.43334311,0.43225169,0.43136674,0.43057337,0.42941415,0.42837605,0.42755976,0.42657375,0.42565781,0.42486313,0.42411113,0.42334363,0.42253423,0.42185503,0.42134473,0.42073417,0.41998076,0.41925618,0.41878581,0.41832256,0.41775298
18,AuroraNIR,barley,Unknown,Italy,2017,13.55,11.55,0.22251542,0.2228114,0.22328711,0.22391215,0.22466907,0.22560996,0.22659881,0.22754827,0.22850195,0.22948642,0.23056281,0.23172352,0.23281667,0.23374143,0.23446864,0.23507154,0.23567979,0.23620948,0.2366146,0.23683235,0.23686591,0.2368229,0.23676828,0.23675197,0.23670819,0.23648801,0.23607418,0.23565373,0.23532015,0.2349067,0.2343823,0.23382898,0.23334736,0.23279858,0.232263,0.23169009,0.23102093,0.23028213,0.22963603,0.22908898,0.22843334,0.22765584,0.22686781,0.22613829,0.2254411,0.22474362,0.22407269,0.22335295,0.22263844,0.2218935,0.22113387,0.22046459,0.21977793,0.2190074,0.21830364,0.21769844,0.21717423,0.21662341,0.21586746,0.21512474,0.21448013,0.21388401,0.21335353,0.21284248,0.21234065,0.21186316,0.21141197,0.21115178,0.21085523,0.2104008,0.2100683,0.20987144,0.20971332,0.209554,0.20937076,0.20923094,0.20902705,0.20872711,0.2084422,0.20829812,0.20824741,0.20823406,0.20831744,0.2085132,0.20884028,0.20936176,0.21010928,0.21115641,0.21242847,0.21397752,0.21590407,0.21832587,0.22111021,0.22411351,0.22721484,0.23050594,0.23407632,0.23788454,0.24177518,0.24566033,0.24961862,0.25352862,0.25728154,0.26086226,0.26426399,0.26746547,0.27047631,0.27327159,0.27583531,0.2781603,0.28038272,0.28252,0.28455272,0.2864452,0.28829032,0.29017577,0.29212528,0.29399043,0.29558995,0.29689124,0.29806769,0.29917365,0.30012697,0.30067641,0.30101886,0.30123809,0.30136454,0.30131489,0.3009578,0.30043873,0.29979086,0.29894015,0.29785007,0.29644042,0.29477286,0.29308051,0.29135481,0.28959909,0.28781754,0.2860074,0.2843779,0.28302321,0.28158769,0.28014198,0.27891561,0.27780774,0.27676165,0.27577689,0.2747823,0.27382076,0.27313146,0.27243465,0.27160779,0.27102295,0.27058753,0.27002862,0.2694926,0.2690345,0.26860201,0.26818249,0.26776904,0.26727319,0.2667405,0.26612818,0.26558527,0.26499435,0.26437989,0.26373151,0.26316851,0.26269361,0.26227117,0.26196948,0.26176855,0.26163614,0.26161966,0.26170662,0.26190126,0.26221934,0.26256058,0.26307088,0.26374632,0.26465693,0.26573861,0.26694733,0.2682932,0.26987582,0.27170902,0.27371573,0.27580494,0.27805629,0.28045955,0.28305772,0.28575438,0.28847867,0.29127768,0.29425946,0.29743028,0.3003225,0.3031671,0.30614585,0.30925038,0.31207308,0.31484646,0.31790477,0.3208299,0.32344398,0.32583845,0.32812929,0.33034292,0.33231941,0.33410516,0.33592635,0.33779204,0.33974993,0.34199679,0.34457132,0.34758234,0.35090014,0.35450146,0.3586348,0.36327332,0.36823592,0.37352288,0.3789455,0.38478601,0.39104068,0.39746943,0.40381619,0.41009927,0.41662806,0.42310208,0.42936185,0.4353036,0.4412204,0.44694385,0.4521212,0.45688602,0.46138048,0.46566859,0.46957204,0.47288871,0.47572333,0.4782379,0.48058385,0.48254746,0.4839946,0.48536205,0.48646981,0.48734847,0.48807833,0.48866069,0.489324,0.48984984,0.49009413,0.49035761,0.49072537,0.49112681,0.49129191,0.49120981,0.49101752,0.49072126,0.49022591,0.48952866,0.48878637,0.48809394,0.48731625,0.4864403,0.48557538,0.48481837,0.48397651,0.48288712,0.48176229,0.48079482,0.47991791,0.47870922,0.47752643,0.47650024,0.47538579,0.47409719,0.47295263,0.47195211,0.47085014,0.46967945,0.46858552,0.4675537,0.46643013,0.46532911,0.46441844,0.46372882,0.46309128,0.46241528,0.46164384,0.46096528,0.46049455,0.46000686,0.45952636,0.45909917,0.45879102,0.45819148,0.45748168,0.45711273,0.45688996,0.45643041,0.45599473,0.45561627,0.45514616,0.45467791,0.45426425,0.45387983,0.45354265,0.45308828,0.45254034,0.45212537,0.45186138,0.45137382,0.45070526,0.450158,0.44978243,0.44901913,0.44798204,0.44708014,0.44639182,0.44549584,0.44423011,0.44308481,0.44238839,0.44116715,0.43992484,0.43908641,0.43807885,0.43701437,0.43599331,0.43510351,0.43416575,0.43305588,0.4321298,0.43134576,0.43037584,0.42952758,0.42886281,0.42825514,0.42761052,0.42693621,0.42643738,0.42607245,0.42556491,0.42499396,0.42455533,0.42427686,0.42401335,0.42376465
19,AuroraNIR,barley,Unknown,Italy,2017,11.8,10.2,0.21241911,0.21284264,0.21340737,0.21409351,0.21488637,0.21583119,0.21684693,0.21793844,0.21908045,0.22015436,0.22123733,0.22240263,0.2235456,0.22458094,0.22542691,0.22611047,0.22676182,0.22731869,0.22777614,0.22807324,0.22817345,0.22815676,0.22807528,0.22799796,0.22789095,0.22763355,0.22721927,0.22680023,0.2264491,0.22601573,0.22547232,0.22488715,0.22436741,0.22379319,0.22324476,0.22266294,0.2219761,0.22120462,0.22051968,0.21993658,0.21925475,0.21847005,0.2177016,0.21700729,0.21634451,0.21567243,0.2150275,0.21437222,0.21375176,0.21307664,0.21236095,0.21173525,0.21110322,0.2103928,0.20972137,0.2091063,0.20854563,0.20799735,0.2073568,0.20680332,0.20634967,0.2058809,0.20539132,0.20486407,0.20435219,0.20392559,0.20351832,0.20324194,0.20291789,0.20246357,0.20216897,0.20201139,0.20186056,0.20171688,0.20157506,0.201471,0.20131178,0.20109697,0.2009012,0.20082399,0.20084614,0.20091118,0.20105895,0.20134988,0.20183505,0.20252433,0.20343208,0.20465818,0.20612019,0.20786203,0.21001633,0.21270069,0.21574442,0.2190107,0.22239612,0.22597779,0.22982349,0.23387839,0.23804948,0.24229617,0.24661289,0.25086308,0.25500286,0.25896856,0.26270917,0.26628277,0.26969391,0.27283823,0.27573177,0.27840215,0.28095385,0.28341809,0.28580263,0.28801146,0.29012516,0.29230082,0.29454523,0.29668009,0.29857793,0.30019879,0.30165115,0.30298209,0.30413255,0.30488586,0.30540919,0.30574611,0.30596918,0.30602732,0.30578807,0.30535161,0.30473799,0.30392626,0.3028456,0.30138528,0.29971635,0.29807463,0.29635921,0.29455552,0.29270065,0.29085219,0.28919861,0.28780457,0.28633386,0.28486133,0.28360745,0.28246275,0.28137961,0.28038034,0.27940792,0.27847579,0.27776438,0.27704334,0.27623296,0.27567643,0.27525857,0.27470237,0.27417362,0.27371529,0.27326837,0.27287507,0.27249938,0.27199304,0.27146447,0.27087897,0.27033412,0.26970538,0.26902801,0.26831204,0.26770893,0.26720637,0.26671085,0.26631564,0.26603466,0.26584172,0.26576835,0.26579648,0.26594198,0.2661894,0.26644227,0.26691186,0.26756266,0.26843089,0.26947457,0.27066299,0.27200213,0.27357683,0.27542874,0.27747157,0.27954769,0.28180426,0.28427342,0.28694218,0.28970996,0.29252389,0.2954421,0.29853916,0.30180272,0.30477914,0.30770618,0.31076464,0.3139523,0.31691065,0.31984383,0.32302105,0.32609683,0.32890064,0.33145306,0.33380499,0.33604601,0.33808708,0.33989602,0.34164065,0.34334394,0.34514922,0.34733003,0.3499006,0.35283846,0.35597047,0.35928741,0.36309168,0.36745885,0.37222478,0.37733543,0.38255519,0.38812107,0.39404538,0.40019378,0.40631619,0.41238737,0.41867372,0.42488101,0.43089861,0.43666181,0.44240132,0.44797084,0.45305359,0.45772362,0.46205288,0.46615961,0.46999431,0.47321197,0.47590992,0.47833499,0.48057371,0.48242834,0.48380437,0.48513249,0.48620692,0.48704323,0.48772565,0.48827046,0.48892328,0.48946586,0.48973373,0.4900445,0.490468,0.49089578,0.49107668,0.49103796,0.49092603,0.49071574,0.49033701,0.48978415,0.4891884,0.48865965,0.48805332,0.48732981,0.48658413,0.48594961,0.4852491,0.48430729,0.48331729,0.48246151,0.48171532,0.48068327,0.47958559,0.47864002,0.47767505,0.47649685,0.47547328,0.47460353,0.47360167,0.47251496,0.47147128,0.47049457,0.46947858,0.46845254,0.467572,0.46690446,0.46632454,0.46577206,0.46510035,0.46444607,0.46400633,0.46357536,0.46316195,0.46279901,0.46255228,0.46197775,0.46131319,0.46106005,0.46093115,0.46050277,0.4601115,0.45985579,0.45949247,0.45910335,0.45877022,0.45848155,0.45823753,0.45790219,0.4574759,0.45716378,0.45705706,0.45670468,0.45621258,0.45593253,0.4556843,0.45506817,0.4542971,0.45368707,0.45319444,0.45244896,0.45141134,0.45056394,0.45006758,0.44906971,0.44810107,0.44753006,0.446771,0.44596076,0.44518629,0.44455782,0.44392946,0.44307566,0.44237417,0.44184306,0.44117445,0.44064263,0.44021264,0.43977922,0.43933991,0.43892959,0.43869936,0.43859485,0.43838903,0.43816891,0.43799803,0.43804649,0.43810189,0.43808153
20,AuroraNIR,barley,Unknown,Italy,2017,16.1,8.8,0.19856526,0.19924642,0.20007987,0.20105563,0.20214635,0.20336014,0.20459072,0.20582914,0.20706505,0.20821112,0.20936327,0.21059947,0.21177858,0.21278502,0.21357,0.21419358,0.21478961,0.21528254,0.21563517,0.21580207,0.21580808,0.21572284,0.21554585,0.21535912,0.21516109,0.21481259,0.21428764,0.2137557,0.21329461,0.2127289,0.21202151,0.21125385,0.21057132,0.20989357,0.20923305,0.20845895,0.20757438,0.20665368,0.20580597,0.20502454,0.20415215,0.20318294,0.202205,0.20128751,0.20041347,0.19955844,0.1987472,0.19788477,0.19702809,0.19616763,0.19531739,0.19456685,0.19380657,0.19296777,0.19218709,0.19147524,0.19079307,0.19008717,0.18926786,0.1885765,0.18806186,0.18754508,0.18699303,0.18642083,0.18588223,0.18543278,0.18501858,0.1847654,0.18449983,0.18410744,0.18382579,0.18369572,0.18365511,0.1836212,0.18354592,0.1835162,0.18344346,0.18330653,0.18321046,0.18326874,0.18342046,0.18360113,0.18387136,0.18428978,0.18489811,0.1857006,0.18672784,0.18811236,0.18977015,0.19172731,0.19410037,0.19702183,0.20036454,0.20398633,0.20776443,0.2117845,0.21609454,0.22058673,0.2251644,0.22979999,0.23448551,0.23904866,0.24338448,0.24745834,0.25125802,0.2548115,0.25814727,0.26122668,0.2640399,0.26659787,0.26906064,0.27145106,0.27374002,0.27588171,0.27796155,0.28006265,0.28221542,0.2842873,0.28611645,0.287671,0.28910497,0.29043379,0.29157621,0.29235014,0.29292569,0.29332986,0.29362383,0.29373717,0.29352656,0.29317206,0.29270706,0.29198453,0.29097521,0.28965014,0.28810763,0.28656015,0.28494757,0.28329143,0.28161046,0.27989069,0.27835277,0.27709821,0.2757524,0.27439022,0.27325323,0.27222812,0.27126279,0.27037492,0.269492,0.26863107,0.26799884,0.26737657,0.26666218,0.26614717,0.26577383,0.26531398,0.26486334,0.26446718,0.26409039,0.26372617,0.26338926,0.26300591,0.26257372,0.26204014,0.26158392,0.26109526,0.26059091,0.26005116,0.25961679,0.2592901,0.25900558,0.25883812,0.25878286,0.25881374,0.2589632,0.25921151,0.25957569,0.26007152,0.26059607,0.26129708,0.26217908,0.26331067,0.26461118,0.26605326,0.2676515,0.26947847,0.27156457,0.27381927,0.27609247,0.278552,0.28120947,0.28398773,0.28684887,0.28974414,0.2926347,0.29568386,0.29893911,0.30189961,0.30476353,0.30771315,0.31077981,0.3136127,0.31639996,0.31941289,0.32239974,0.32514724,0.32760271,0.32995325,0.33223918,0.33428407,0.33616304,0.3380377,0.33992472,0.34204561,0.3445709,0.34744355,0.3507117,0.35426253,0.3581036,0.3625192,0.36755303,0.37300292,0.37878287,0.38464752,0.39088312,0.39749885,0.4042314,0.41084471,0.41737422,0.42411596,0.43072543,0.43707752,0.443124,0.44906959,0.45479268,0.4600032,0.46476275,0.469246,0.4735314,0.47740132,0.48071754,0.48359799,0.48617575,0.48861244,0.49063808,0.49209654,0.49349508,0.49465594,0.49557564,0.49632609,0.49698991,0.49777094,0.49839517,0.4987275,0.49909708,0.49956328,0.5000214,0.50028008,0.50026011,0.50008631,0.49992687,0.49958709,0.49898595,0.49829775,0.49763688,0.4968802,0.49599877,0.4950802,0.49430165,0.49348328,0.49239433,0.49117875,0.4901033,0.48915777,0.4878954,0.48663867,0.48553595,0.48439658,0.48315361,0.48196813,0.48086917,0.47971487,0.47846556,0.47726038,0.47609037,0.47484148,0.47375503,0.47282007,0.47199404,0.47128132,0.47059086,0.46984059,0.469163,0.46861604,0.46811393,0.46768519,0.46728525,0.46695575,0.46635029,0.46569356,0.46540311,0.46519977,0.46477199,0.46445802,0.46426013,0.46388838,0.46345672,0.46314016,0.46297091,0.46284086,0.46257743,0.46219733,0.4619531,0.46197838,0.46171305,0.46127483,0.46107966,0.46086201,0.46032304,0.45959112,0.45889279,0.4583838,0.45758408,0.45643693,0.45551303,0.45497656,0.45388013,0.45275202,0.45205593,0.45124486,0.45023,0.4492465,0.44855726,0.44787496,0.44679895,0.44589356,0.4452295,0.44439125,0.44373441,0.44314003,0.44248551,0.44184521,0.44131058,0.44100884,0.44075653,0.44032013,0.4399198,0.43960479,0.43944508,0.43929771,0.43917039
21,AuroraNIR,barley,Unknown,Italy,2017,12.7,10.3,0.21666996,0.21734655,0.21812674,0.2190031,0.2199764,0.22110723,0.22231202,0.22357906,0.22488351,0.22611783,0.227367,0.22870985,0.23004669,0.23129441,0.2323613,0.2332761,0.23420496,0.23508783,0.23586394,0.23643477,0.23675241,0.23691881,0.23702407,0.23712537,0.23715881,0.23699193,0.23661974,0.23621877,0.23587503,0.23542602,0.23484688,0.23422703,0.23368016,0.23308015,0.23249321,0.23185147,0.23110792,0.23030731,0.22962791,0.22908068,0.22844972,0.22772512,0.227025,0.22638839,0.22577016,0.22521012,0.22475839,0.22423644,0.22366755,0.22306912,0.22245239,0.22189273,0.22129779,0.22060895,0.2199385,0.21930413,0.21871145,0.21809898,0.21733825,0.21665351,0.21610032,0.21555157,0.21501002,0.21449426,0.21401328,0.21356794,0.2131328,0.21287133,0.21261241,0.21223383,0.21196285,0.21183512,0.21178307,0.21171026,0.21158578,0.21155326,0.21150556,0.21136387,0.21122237,0.21120061,0.2112478,0.21130203,0.21142505,0.21170132,0.21219124,0.21287908,0.21376124,0.21493749,0.21636,0.21809384,0.22021785,0.22283714,0.2258258,0.22907844,0.2324892,0.23605746,0.23983742,0.24384189,0.24797112,0.25216579,0.25646746,0.26072204,0.26480293,0.26866663,0.27230331,0.27575743,0.27903795,0.28206268,0.28483373,0.28736466,0.28977102,0.29209176,0.29434288,0.29645357,0.29849848,0.30058825,0.30274433,0.30482015,0.30667877,0.3082715,0.30970621,0.31103343,0.3121925,0.31295499,0.31347761,0.31381044,0.3140769,0.31419802,0.31395885,0.31354544,0.31302536,0.31228164,0.31124625,0.30985063,0.30824897,0.30665511,0.30496421,0.30321854,0.30144551,0.29960841,0.29795921,0.29662117,0.29517961,0.29368782,0.29239896,0.29125756,0.2901957,0.2891759,0.28819615,0.28728697,0.28657728,0.28584763,0.28502828,0.28443989,0.28399146,0.28343177,0.28290749,0.28243691,0.28194886,0.28150716,0.28112113,0.28066528,0.28016195,0.27955234,0.27898625,0.27839077,0.27777934,0.27708772,0.27649879,0.27602413,0.2755551,0.27519962,0.27496535,0.2747885,0.27471539,0.27474952,0.27491191,0.27519697,0.27548635,0.27593705,0.27656525,0.2774474,0.27850378,0.27969348,0.28103051,0.28260973,0.28445441,0.28646478,0.28849277,0.29069415,0.29310894,0.29573196,0.29846686,0.30124369,0.30408585,0.3070817,0.31023142,0.31308019,0.31589779,0.31886306,0.32194194,0.32480431,0.32765052,0.33072701,0.33373412,0.33645388,0.33886108,0.34115744,0.34338796,0.34536546,0.34713939,0.34890267,0.35065636,0.35250804,0.35467154,0.35715276,0.3600024,0.36309844,0.36643293,0.37026834,0.37464207,0.37937084,0.38442102,0.38962701,0.39520457,0.40112397,0.40726742,0.41336825,0.41940334,0.42568943,0.43197474,0.43806887,0.44381922,0.44961381,0.45523342,0.46026453,0.4649255,0.4692975,0.47344694,0.47728875,0.48049006,0.48317477,0.48559904,0.48782182,0.48968986,0.49110666,0.49241102,0.49346319,0.49430519,0.49498212,0.4955183,0.49617875,0.49674019,0.49699652,0.49724773,0.49759838,0.49800527,0.4982357,0.49818903,0.49798989,0.49781436,0.4975093,0.49698383,0.49636397,0.49576294,0.49511844,0.49440145,0.49361336,0.4929601,0.49226928,0.49132454,0.49034089,0.48946524,0.48869032,0.48767719,0.48658329,0.48560163,0.48459065,0.48338979,0.48229727,0.48135564,0.4803381,0.47920549,0.4781341,0.47715864,0.47612676,0.47509634,0.47424063,0.47360262,0.47301736,0.47245526,0.47178203,0.47110984,0.47061026,0.47014505,0.4697296,0.46935147,0.46905389,0.46843675,0.46771881,0.4673734,0.46716377,0.46662837,0.4661158,0.465756,0.46525338,0.46468088,0.46416202,0.46373051,0.46337292,0.46290144,0.46229619,0.46177575,0.46144947,0.46090966,0.46019122,0.45960891,0.45916176,0.45833871,0.45726433,0.45631227,0.45553896,0.45446363,0.4530476,0.45182523,0.4509159,0.44953486,0.44820285,0.44725248,0.4460997,0.44481069,0.44360518,0.44261137,0.44153368,0.440254,0.43917969,0.43827894,0.43721128,0.43629533,0.43549487,0.43475488,0.43404511,0.43324983,0.4326455,0.43220183,0.43169853,0.43123481,0.43074062,0.43046492,0.43019572,0.42986199
22,AuroraNIR,barley,Unknown,Italy,2017,10.95,9.05,0.19633955,0.19674467,0.1972968,0.19793305,0.1986465,0.19954726,0.20058154,0.20174463,0.20298028,0.20413876,0.20534654,0.20673119,0.20809066,0.20923945,0.2101396,0.21086915,0.21155858,0.21213359,0.21256877,0.21279952,0.21280415,0.21268882,0.21253434,0.21240328,0.21223651,0.21187109,0.21128269,0.2106857,0.21018773,0.20960505,0.20889463,0.2081375,0.20746402,0.20677425,0.20609757,0.20532748,0.20446295,0.2035732,0.20277403,0.20205174,0.20122474,0.20028765,0.19934614,0.19847406,0.19765164,0.19684318,0.19606814,0.19524096,0.19442229,0.19359849,0.19277188,0.19202541,0.19128589,0.19050479,0.18977556,0.18909258,0.18844001,0.18776488,0.18695733,0.1862143,0.18556274,0.18487336,0.18415436,0.18343836,0.18276682,0.18216679,0.18156131,0.18107159,0.18055511,0.17992643,0.17943883,0.17910556,0.17883399,0.17856066,0.17826112,0.17803472,0.17776254,0.17738417,0.1770469,0.17689496,0.17683516,0.17680588,0.17689312,0.17709701,0.17742647,0.1779829,0.17877953,0.17982148,0.18107817,0.18265435,0.18459623,0.18700002,0.18976672,0.19275981,0.19585297,0.19913432,0.20268193,0.20644358,0.21032338,0.21428178,0.21833171,0.22232249,0.22616814,0.22984844,0.23335958,0.23672739,0.2399444,0.2429191,0.24565616,0.24818015,0.25062045,0.25299489,0.25528741,0.25745213,0.25957125,0.26172361,0.26392531,0.26603922,0.26793262,0.26954773,0.27097824,0.27229801,0.27346203,0.27422717,0.27477187,0.27515918,0.27542508,0.27550137,0.2752713,0.27486479,0.27430329,0.27351952,0.27245733,0.27103642,0.26940194,0.26776484,0.26602882,0.26425809,0.26247871,0.26062226,0.25893906,0.25757325,0.25614455,0.25468171,0.25340542,0.25230843,0.25131276,0.25032577,0.2493647,0.24849033,0.24784508,0.24719402,0.24645123,0.24593817,0.24557978,0.24512769,0.24469404,0.24430414,0.24389811,0.24349269,0.24309175,0.24260741,0.2421069,0.24151684,0.24093556,0.24031684,0.23968869,0.23897335,0.23835085,0.23784436,0.23735885,0.23696661,0.2366749,0.23647176,0.23638098,0.23638682,0.23652625,0.23676838,0.23699322,0.23740281,0.23800434,0.23883751,0.23979566,0.24090277,0.2422009,0.24371494,0.24548039,0.24744289,0.24948312,0.25171,0.25412276,0.25672248,0.25942943,0.26219675,0.26507041,0.26813751,0.27142796,0.27452794,0.27758411,0.280743,0.28404456,0.2870996,0.29010347,0.29334626,0.29647142,0.29928654,0.30181944,0.30420017,0.30646607,0.30846438,0.31024933,0.31202209,0.31377929,0.31559303,0.31764194,0.31992999,0.32254714,0.32542238,0.3285366,0.33209786,0.33617061,0.34059885,0.34534109,0.35019219,0.35541666,0.36103046,0.36687112,0.37270832,0.378564,0.38473111,0.39084423,0.39677802,0.40250894,0.40825924,0.4138566,0.41896597,0.42367125,0.42809203,0.43231672,0.43620035,0.43946657,0.44224316,0.4447419,0.44701451,0.44890758,0.45034897,0.45171863,0.45284468,0.4537313,0.45442998,0.45502684,0.4557206,0.45626715,0.45658913,0.45690948,0.45728642,0.45771122,0.45795062,0.45795944,0.4578785,0.45779365,0.45750913,0.45699036,0.45646316,0.45604953,0.4555299,0.4548848,0.45433295,0.45385036,0.45321122,0.45232293,0.45144215,0.45073122,0.45008451,0.44908538,0.44815099,0.44734856,0.44640529,0.44532844,0.44439769,0.44360116,0.44268396,0.44161654,0.44065163,0.43977091,0.43874228,0.43780193,0.43701893,0.43639329,0.43587446,0.4352859,0.4346562,0.43416268,0.43370506,0.43324843,0.43290102,0.43264762,0.4324908,0.43199229,0.43134519,0.43104777,0.43094909,0.4305892,0.43023399,0.42996904,0.42959601,0.42920005,0.42890653,0.42871454,0.42849821,0.42816356,0.42773262,0.42739016,0.42727298,0.42695108,0.42646021,0.42609748,0.42577794,0.42512214,0.42427832,0.42354339,0.42297834,0.42214277,0.42099077,0.42003447,0.41939554,0.41822895,0.41707751,0.41637012,0.41555202,0.41449082,0.41345173,0.41270471,0.4119612,0.41094437,0.41003186,0.40926725,0.40838781,0.40770808,0.40711635,0.40647113,0.40582186,0.40525866,0.40484855,0.40453166,0.40411475,0.40367088,0.40321004,0.40294027,0.4027679,0.40257531
23,AuroraNIR,barley,Unknown,Italy,2017,10.55,9.55,0.2262712,0.22663945,0.22718914,0.22786643,0.22865938,0.22965689,0.23078167,0.23200877,0.23330778,0.23457447,0.23592158,0.23744129,0.23892343,0.2401876,0.24121223,0.24207729,0.24287821,0.24352519,0.24401686,0.24431069,0.24439953,0.24436639,0.24425091,0.24413691,0.24400498,0.24369034,0.24315004,0.24256487,0.24203399,0.24141166,0.24066837,0.23986705,0.23913084,0.23836073,0.23760018,0.23675361,0.23580694,0.234816,0.23389404,0.23303333,0.23206721,0.23100308,0.22995412,0.22898158,0.22805099,0.22713712,0.22626856,0.22535366,0.22444446,0.22351681,0.22257251,0.2216983,0.22081377,0.21986735,0.2189648,0.21812308,0.21735726,0.21659842,0.21569693,0.21484368,0.21408154,0.21332592,0.21256997,0.21176299,0.2109662,0.21027529,0.20960963,0.20907047,0.20849855,0.20778425,0.20716153,0.20670342,0.20636965,0.20601343,0.20557702,0.20522994,0.20487361,0.20442866,0.20400882,0.20374876,0.20359477,0.20349127,0.20350736,0.20367962,0.20403145,0.20458362,0.20536727,0.20650139,0.20793408,0.20971717,0.21191952,0.2146486,0.21779019,0.22121352,0.22479269,0.22857887,0.23264162,0.2369515,0.24139316,0.24590121,0.25050616,0.25506172,0.25946426,0.26369104,0.26772925,0.27156848,0.27520654,0.27858874,0.2817162,0.28461263,0.28743583,0.29017889,0.29277977,0.29522917,0.29763466,0.300055,0.30250797,0.30486465,0.30698478,0.30879965,0.31039372,0.31183353,0.31307811,0.31390387,0.3144792,0.3148537,0.31510141,0.31514722,0.31482673,0.3142949,0.31359193,0.31262615,0.31137347,0.30977702,0.30790344,0.30599782,0.30406165,0.30206662,0.30001503,0.2979489,0.29606989,0.29446164,0.29279655,0.29114243,0.28972137,0.28847405,0.28732342,0.2862168,0.28514832,0.28415248,0.2833679,0.2825847,0.28174174,0.28116211,0.28072378,0.28014961,0.2796019,0.27911985,0.27862921,0.27813441,0.2776511,0.27710056,0.27650166,0.27579099,0.27511671,0.27438983,0.27363715,0.27282676,0.27211154,0.27149421,0.27089369,0.27039737,0.27001533,0.26972711,0.26956594,0.2695041,0.26954481,0.26972219,0.26995611,0.27039966,0.27101827,0.27186882,0.27291635,0.27410927,0.27545992,0.2771031,0.27904543,0.28117511,0.283369,0.28577608,0.28842127,0.29129219,0.29429436,0.29735798,0.30050573,0.30385196,0.30742219,0.31076136,0.31407279,0.31751743,0.32108974,0.32439694,0.3276574,0.33117318,0.3345221,0.33750764,0.34020588,0.3427712,0.34522352,0.34738857,0.3493318,0.35122839,0.35307997,0.35502934,0.35721636,0.3596153,0.36235943,0.36539897,0.3686913,0.37241277,0.3766678,0.38129506,0.38623703,0.39133835,0.39681524,0.40265515,0.40878427,0.41489771,0.42096746,0.42735413,0.43374568,0.43999705,0.44602206,0.45204237,0.45790896,0.46329626,0.46826234,0.47289839,0.47730839,0.48139116,0.48481095,0.48771,0.49036828,0.49283203,0.49486613,0.49637792,0.49783882,0.49902934,0.50001675,0.50092524,0.50159997,0.50237,0.50310087,0.50348669,0.50385803,0.50431848,0.50477117,0.50500745,0.50509304,0.50516528,0.50513422,0.50492001,0.50449991,0.50400627,0.50363934,0.50324982,0.5027402,0.50217468,0.50174475,0.50124776,0.50046903,0.49967158,0.49899507,0.49839792,0.497527,0.49659547,0.49579823,0.49499011,0.49403298,0.49317238,0.49241418,0.4915632,0.49066433,0.48979542,0.48894769,0.4880504,0.48724189,0.48660105,0.48611078,0.48567453,0.48530307,0.48483622,0.48437804,0.48413894,0.48392424,0.48374164,0.4836143,0.48360375,0.483289,0.48284653,0.48275352,0.48284903,0.48264298,0.48245206,0.48242348,0.48231319,0.48218098,0.48205864,0.48193476,0.48191562,0.48175809,0.48148531,0.4813751,0.48136368,0.48113212,0.48077565,0.48057422,0.48050088,0.47991282,0.47905174,0.47843662,0.47794908,0.47715512,0.47601813,0.47502679,0.47431886,0.47313097,0.47198275,0.47120038,0.47021693,0.46914583,0.4681403,0.46729887,0.46636286,0.46514294,0.46412852,0.46332803,0.46236056,0.46154368,0.46076784,0.46000481,0.45933256,0.45866328,0.45809832,0.4576464,0.45708355,0.45647502,0.45604295,0.4557744,0.45542422,0.45507136
24,AuroraNIR,barley,Unknown,Italy,2017,12.5,14,0.1635108,0.16414781,0.16486534,0.16553074,0.16632667,0.16741607,0.16851291,0.16960208,0.17087631,0.17234753,0.1737144,0.17493665,0.17621629,0.17753986,0.17879051,0.17979681,0.18050891,0.18116504,0.18188247,0.18232042,0.18238303,0.18236832,0.18244533,0.18245129,0.18228541,0.1819012,0.18142694,0.18114546,0.18085498,0.180426,0.1798816,0.17935894,0.17881936,0.17827252,0.17757539,0.17683595,0.17607138,0.17525561,0.17431322,0.17347611,0.17286043,0.17211047,0.17126177,0.17037222,0.1695998,0.16889514,0.16811174,0.16724753,0.16648313,0.16583623,0.1650883,0.16431068,0.1636479,0.16294879,0.16219246,0.16149272,0.16084152,0.16003135,0.1592523,0.15853807,0.15790689,0.15734737,0.15685834,0.15628566,0.1556287,0.15501505,0.15462285,0.15415706,0.15360163,0.15329346,0.15311126,0.15266329,0.15226263,0.1521416,0.15199268,0.15184246,0.1516934,0.15152276,0.1512807,0.15119897,0.15125027,0.15135062,0.15140934,0.15160203,0.15199178,0.1525791,0.15342,0.15444005,0.15566257,0.15726809,0.15946184,0.16190486,0.16462919,0.16775006,0.17121521,0.17485988,0.178643,0.18259333,0.18663558,0.19081703,0.19519836,0.199471,0.20354624,0.20747767,0.21125279,0.21477212,0.21819705,0.22131157,0.22398859,0.22643925,0.22881661,0.23119423,0.23342888,0.23543012,0.2374182,0.23953532,0.2417118,0.24375492,0.24534899,0.24688679,0.24831462,0.24953647,0.25049934,0.25127211,0.25193134,0.25245908,0.25279576,0.2526404,0.25231636,0.25200641,0.25142983,0.25067288,0.24958208,0.24822959,0.24667123,0.24525124,0.24368836,0.24173829,0.23978081,0.23805234,0.23639438,0.23480719,0.23328421,0.23182404,0.2305463,0.22953203,0.22837324,0.22720492,0.22625405,0.22544189,0.22458409,0.22373787,0.22307599,0.22256637,0.22218081,0.2217232,0.22120953,0.22080566,0.22050592,0.22002715,0.21957012,0.21914724,0.2186121,0.21819793,0.21778622,0.21716093,0.21647319,0.21587424,0.21537572,0.21482682,0.21430866,0.2139197,0.21381061,0.21367623,0.21356656,0.21348777,0.21363501,0.21391776,0.21430957,0.21482605,0.21555714,0.21644714,0.2174786,0.21859027,0.21998519,0.22161923,0.22340144,0.22533098,0.22746921,0.22977202,0.23227605,0.2349644,0.23780525,0.24070561,0.24368617,0.24677891,0.24991938,0.25302577,0.25623333,0.25949076,0.26269022,0.26565737,0.268684,0.27159795,0.27418643,0.27682504,0.27943248,0.28181988,0.28410029,0.28625458,0.2883431,0.29024723,0.2920278,0.29386997,0.29594305,0.29836437,0.30117881,0.3044416,0.30809474,0.31221983,0.3166388,0.32138959,0.32646796,0.33180714,0.33726302,0.34313363,0.34937149,0.35559991,0.36212525,0.3689599,0.37542406,0.3814618,0.38745615,0.39356881,0.39936525,0.40461376,0.40934932,0.4139407,0.41819173,0.42184937,0.42502761,0.42822081,0.43108076,0.43329376,0.43506113,0.4366501,0.43811667,0.43942028,0.44028869,0.4409135,0.44176295,0.44251952,0.44298157,0.44334313,0.44386896,0.44425049,0.44434959,0.44430372,0.44432932,0.44446477,0.44432491,0.44373289,0.44355333,0.44323587,0.44239497,0.44149303,0.44066447,0.43998492,0.43927789,0.43824497,0.43723276,0.43646908,0.43553627,0.43436205,0.43319124,0.43221813,0.43127528,0.43018132,0.42918858,0.42833617,0.42721665,0.42598262,0.42486292,0.42388469,0.42284971,0.42186874,0.42107749,0.42030573,0.41954443,0.41872025,0.4179486,0.41738844,0.41702026,0.41646007,0.41576344,0.41538435,0.41520303,0.41465724,0.41386905,0.41360477,0.41329271,0.41272828,0.41238222,0.41213563,0.41196078,0.41151303,0.41073829,0.41054049,0.41030902,0.409953,0.4096128,0.40931779,0.40904552,0.40847108,0.40783316,0.40766561,0.40714097,0.4063918,0.4059884,0.40540987,0.40464434,0.40358183,0.40243435,0.40177226,0.40073746,0.39956051,0.39846176,0.39745039,0.39652383,0.3954941,0.39448863,0.39338022,0.3921209,0.39081866,0.38986507,0.3891775,0.38828927,0.38721523,0.38632345,0.38573378,0.38499236,0.38382244,0.38305795,0.38280144,0.38236809,0.38120645,0.38076058,0.38054237,0.3799684,0.37952402,0.37958691
25,AuroraNIR,barley,Unknown,Italy,2017,12.7,13.4,0.15981308,0.16058676,0.16149558,0.16234718,0.16329187,0.16448355,0.1656661,0.16687235,0.16835752,0.17008205,0.17158602,0.17286764,0.17429486,0.17578897,0.17708817,0.17813832,0.17901331,0.17975301,0.18036176,0.18075608,0.18092641,0.18093108,0.18091777,0.18092507,0.1808548,0.18054673,0.18011497,0.17985947,0.17956014,0.17909779,0.17858973,0.17816705,0.17763916,0.17704001,0.17638573,0.17572865,0.17495653,0.17408904,0.1731151,0.17225072,0.17161146,0.17087735,0.17004693,0.16909809,0.16825193,0.16754992,0.16679189,0.16591796,0.16511261,0.16442385,0.16367669,0.16291673,0.16223812,0.16150977,0.16074069,0.16005026,0.15944031,0.15871644,0.15801728,0.15731251,0.15668407,0.15617004,0.15570067,0.15510021,0.1544157,0.15380266,0.15344743,0.15303656,0.15251029,0.15213731,0.15187471,0.1514913,0.15118277,0.15104088,0.15084586,0.15070115,0.15062103,0.15052134,0.15028471,0.15018818,0.1502547,0.15041414,0.15052897,0.150719,0.15113524,0.15182553,0.1527445,0.15380642,0.1550978,0.15679598,0.15909833,0.16169257,0.16458985,0.16785347,0.1714626,0.17528234,0.17923704,0.1833618,0.18761778,0.19202301,0.196604,0.20105268,0.20526826,0.20929298,0.21317126,0.2168299,0.22037274,0.22357364,0.22632314,0.22881702,0.23122679,0.23368859,0.23601727,0.23806736,0.24012177,0.24231747,0.24451059,0.24655552,0.24818599,0.24976748,0.25124806,0.25254709,0.25358713,0.25440937,0.25507891,0.25563657,0.2560457,0.25590402,0.25554115,0.25521466,0.25465298,0.25391018,0.25278381,0.25138327,0.24980643,0.24838495,0.24679378,0.24476761,0.24277079,0.24104398,0.23936185,0.2377494,0.23621452,0.2347267,0.23342563,0.23240802,0.23123032,0.23001854,0.22902468,0.22822776,0.22741789,0.22657956,0.22591379,0.22540545,0.22501014,0.22454628,0.22402982,0.22360015,0.22329009,0.22283706,0.22238654,0.22194034,0.22137053,0.22093239,0.22053249,0.21995035,0.21925882,0.21862996,0.21814848,0.21764734,0.21715878,0.21674949,0.2166397,0.21654451,0.21647052,0.21638846,0.21652901,0.21687524,0.21735466,0.21791846,0.21863669,0.21956143,0.2206718,0.22179422,0.2232109,0.22491641,0.22677159,0.22878158,0.2310138,0.23340248,0.23592715,0.23861325,0.24152946,0.2445136,0.24756815,0.25076422,0.25399572,0.25714093,0.2603398,0.26362437,0.2669155,0.26999429,0.27306637,0.27598768,0.27862284,0.28135848,0.28405118,0.28647745,0.28881803,0.29104233,0.29315418,0.2950055,0.29681695,0.29879612,0.3009536,0.30341661,0.30627173,0.30959809,0.31334528,0.31756788,0.3220787,0.32698059,0.33221811,0.33767009,0.3432377,0.34923816,0.35564968,0.36210889,0.36882794,0.3758091,0.38242656,0.38862631,0.39479366,0.40107942,0.40702876,0.41247955,0.41738373,0.42194772,0.42630816,0.4301655,0.43339288,0.43667883,0.43964449,0.44188765,0.44365752,0.44530523,0.44684315,0.44813627,0.44901323,0.44965273,0.45048076,0.45122024,0.4516803,0.45207557,0.45267731,0.45309272,0.45317462,0.4530834,0.45303997,0.45315507,0.45304912,0.45247683,0.45225781,0.45186341,0.45096123,0.45002869,0.44909212,0.44837874,0.4477945,0.44664162,0.4454304,0.44458586,0.44365877,0.44251201,0.44125903,0.44012791,0.43916473,0.43800166,0.43692321,0.43609735,0.43499279,0.43373528,0.43255025,0.43146795,0.43035245,0.42934087,0.42854357,0.42775035,0.42697233,0.42613396,0.4252992,0.42461422,0.42428932,0.42376125,0.42294911,0.42256799,0.42238075,0.42180413,0.42099983,0.42068729,0.42040008,0.41983867,0.41936851,0.41903299,0.41890344,0.41852629,0.41772231,0.41746524,0.41720027,0.41683066,0.41648299,0.41621765,0.416022,0.41546026,0.41469815,0.41440192,0.41396862,0.41336134,0.41292056,0.4121961,0.41139275,0.41041604,0.40929693,0.40851945,0.40753952,0.40639454,0.40520915,0.40413859,0.40318277,0.40215304,0.40119556,0.40013957,0.39885354,0.39759439,0.39660043,0.39583737,0.3950929,0.39404321,0.39310315,0.3925384,0.39193311,0.39094058,0.39016995,0.38984597,0.38945708,0.38838995,0.38798785,0.38792026,0.38747242,0.3869358,0.38689795
26,AuroraNIR,barley,Unknown,Italy,2017,12.5,14.1,0.162524,0.16321343,0.16396634,0.16454948,0.16524145,0.16628797,0.16738826,0.16848454,0.16970406,0.17107844,0.17241378,0.17367375,0.17498603,0.17629988,0.17749214,0.1784427,0.17914481,0.17977421,0.18042974,0.18091068,0.18112695,0.18115675,0.18116365,0.18118763,0.1811074,0.18073954,0.18027368,0.18008004,0.17983755,0.17935164,0.17881437,0.17840241,0.17790213,0.17732257,0.17666018,0.17596985,0.17516163,0.17431608,0.17344224,0.17264554,0.17199615,0.17124957,0.17045209,0.16959223,0.16885309,0.16822626,0.16749875,0.16663361,0.1658873,0.1652897,0.16456231,0.16380349,0.16321108,0.16256948,0.16181211,0.16112491,0.16051775,0.15972352,0.15892653,0.15818971,0.15755902,0.15703192,0.15657461,0.15601444,0.15535527,0.15473601,0.15435012,0.15392162,0.15340967,0.15305454,0.15278924,0.15237269,0.15202565,0.15186742,0.15167613,0.15152761,0.1513913,0.15120924,0.15091655,0.15079612,0.15083981,0.15091427,0.15093175,0.15110198,0.1514791,0.15204385,0.1528374,0.15378702,0.15492737,0.15643279,0.15851121,0.16085698,0.16348955,0.16647737,0.16978057,0.1732543,0.17684738,0.18060005,0.18446493,0.18846597,0.19264668,0.19673368,0.2006278,0.2043463,0.20792246,0.21128763,0.21456824,0.21753767,0.22007179,0.22236276,0.22456591,0.22678804,0.22889245,0.23077814,0.23264569,0.23463054,0.23667055,0.23857665,0.24003938,0.24146034,0.24278702,0.24392366,0.24482733,0.2455529,0.24614465,0.24663104,0.24697819,0.24680632,0.24643776,0.24610645,0.24553715,0.24480762,0.24375391,0.24244349,0.24093504,0.23958081,0.23807348,0.23615095,0.23425707,0.23261669,0.23100021,0.22944593,0.22796772,0.22652631,0.22526671,0.22429983,0.22319701,0.22205265,0.22108111,0.2202837,0.21947679,0.21865803,0.218013,0.21751645,0.21712637,0.21666533,0.21616188,0.21577075,0.21547768,0.21500655,0.21458103,0.21417598,0.21361507,0.21318415,0.21278776,0.21220109,0.21155001,0.21096621,0.21046096,0.20991959,0.20942327,0.20904653,0.20895466,0.20884356,0.20874777,0.20867684,0.20882757,0.20910825,0.20950112,0.21001011,0.21070486,0.21157193,0.21258624,0.21363235,0.21496421,0.21655697,0.21828562,0.22016516,0.22226,0.22450103,0.22690494,0.22948501,0.23225851,0.23508026,0.2379535,0.24094234,0.24399589,0.24702661,0.25015974,0.25335482,0.25651345,0.25945255,0.26242271,0.26524833,0.26773739,0.27028078,0.27281362,0.27516267,0.27743721,0.27953333,0.28149208,0.28330466,0.28508598,0.28697351,0.28902265,0.29133767,0.29402125,0.29720259,0.30081159,0.30487517,0.30920333,0.31393129,0.31894705,0.32413116,0.3295202,0.33535117,0.34153652,0.34775531,0.35422844,0.3609907,0.3674489,0.37349299,0.37951776,0.38566986,0.39141214,0.39671558,0.40159282,0.40612128,0.41035971,0.41411254,0.4173505,0.4205758,0.42340505,0.42556122,0.42737481,0.42897084,0.43036416,0.43162021,0.43249908,0.43316835,0.43401748,0.43465853,0.43509465,0.4354997,0.4359535,0.43633246,0.43643329,0.43630815,0.43630356,0.43640026,0.4362227,0.43564478,0.43540376,0.43499532,0.43411925,0.433211,0.43229178,0.43156737,0.43095586,0.42985147,0.42867869,0.42779133,0.42679948,0.42571133,0.42458171,0.42350152,0.42249048,0.42134857,0.42028072,0.41935736,0.41827524,0.4171122,0.41599217,0.41491866,0.41378546,0.41280887,0.41209832,0.41134793,0.41053319,0.40965408,0.40887469,0.40831098,0.40787339,0.40734276,0.40675947,0.4062407,0.40598446,0.40548545,0.40470654,0.40440416,0.40407145,0.40348849,0.40308136,0.40277001,0.40262121,0.40227431,0.40154603,0.40123695,0.40090737,0.40053242,0.40016451,0.39976233,0.39946491,0.39894903,0.39830345,0.3979806,0.39733565,0.39662376,0.39627063,0.39552838,0.39467514,0.3936294,0.39247122,0.39173079,0.39065397,0.38944849,0.38825577,0.38710079,0.38613147,0.38508216,0.38405195,0.38292491,0.38159534,0.38018459,0.37905905,0.37826508,0.37745923,0.37631053,0.37534994,0.37468031,0.3738175,0.37280679,0.37199336,0.37144691,0.3708871,0.36988562,0.36932385,0.36906505,0.36856169,0.36799368,0.36783832
27,AuroraNIR,barley,Unknown,Italy,2017,12.7,15.2,0.1694445,0.17006211,0.1707439,0.17123342,0.1718215,0.17276168,0.17373744,0.17469701,0.17580959,0.17708418,0.17823836,0.17927797,0.18045907,0.18169385,0.18275639,0.18356612,0.18417987,0.18473858,0.18529798,0.18564782,0.18572143,0.18565932,0.1856169,0.18556213,0.1853918,0.18498053,0.18445481,0.18412711,0.18382676,0.18344258,0.18298602,0.18256596,0.18210058,0.18161958,0.18104169,0.18042448,0.1797083,0.17893445,0.17808378,0.17731246,0.17673108,0.17609856,0.1753938,0.17451057,0.17375204,0.17325407,0.17266732,0.17184073,0.17109357,0.17050916,0.16982557,0.16911502,0.16853774,0.16789584,0.16716126,0.16656731,0.16611475,0.16546471,0.16479801,0.16420934,0.16373065,0.16333255,0.16295965,0.16245584,0.16187727,0.16134544,0.16101192,0.16061883,0.16014418,0.15982158,0.15959884,0.159263,0.15901861,0.15894827,0.1587882,0.15863669,0.15855137,0.15847024,0.15827437,0.15820125,0.15825152,0.15837456,0.15847546,0.15870476,0.15912201,0.15972169,0.16053858,0.16150033,0.16264984,0.16416983,0.16625358,0.16853517,0.1710605,0.17398584,0.17723992,0.18063357,0.18413971,0.18780573,0.191571,0.19546853,0.19955251,0.20354654,0.20735693,0.21100888,0.21452042,0.21781951,0.22105668,0.2239906,0.22647285,0.22873443,0.23094879,0.23319228,0.23529047,0.23712809,0.23896067,0.24092847,0.24292395,0.24477971,0.24621113,0.24760719,0.24891084,0.25002176,0.25086352,0.25151515,0.25210041,0.25259328,0.25290591,0.25271747,0.25235459,0.25202096,0.25146344,0.25076592,0.24973828,0.24842791,0.24691314,0.2456221,0.24420005,0.24230285,0.24041836,0.23881498,0.2372731,0.2357845,0.23433883,0.23292235,0.23170394,0.2307895,0.2297006,0.22856399,0.22764088,0.2268784,0.22609717,0.22533336,0.22470298,0.22418496,0.22382876,0.22342625,0.2229574,0.22256835,0.22228754,0.22185563,0.22144139,0.2210384,0.22050807,0.22012292,0.21975526,0.21916336,0.21851517,0.21796787,0.21752402,0.21701871,0.21652092,0.21612683,0.21601191,0.21589869,0.21584335,0.21578877,0.21591173,0.21616453,0.21656397,0.21708427,0.21773431,0.2185725,0.21959393,0.22062372,0.22191244,0.22346252,0.22517672,0.22703212,0.22907391,0.23125318,0.23361188,0.2361383,0.23881003,0.24155784,0.24438764,0.24730805,0.25031859,0.25330618,0.25633249,0.25942099,0.26248431,0.26530343,0.26812923,0.27086249,0.27334601,0.27583322,0.27824888,0.28046811,0.2826159,0.2846756,0.28666878,0.28841597,0.290095,0.29192778,0.29397649,0.29630148,0.29892233,0.30192167,0.3053574,0.3092798,0.31345636,0.31803542,0.32288057,0.32784107,0.33295745,0.33852813,0.34445027,0.35031959,0.35642272,0.36283982,0.3689796,0.37471563,0.38039982,0.3861987,0.39168063,0.39665797,0.40113309,0.40539637,0.40941849,0.41292989,0.41593421,0.41902018,0.4216994,0.42366111,0.42540291,0.42696574,0.42831498,0.42953849,0.43033314,0.43093497,0.43178985,0.43242735,0.43285206,0.43324235,0.43365589,0.43396658,0.43410075,0.43409058,0.43402031,0.4341256,0.43405557,0.4334754,0.43323144,0.43285793,0.43202183,0.43112889,0.43023264,0.42952877,0.4289341,0.42791426,0.42677337,0.42590028,0.42504272,0.42396647,0.42279556,0.42175913,0.42081082,0.41968733,0.41863307,0.41773507,0.41657507,0.41536623,0.41427505,0.41321558,0.41208348,0.41104957,0.41022849,0.40939578,0.40856427,0.40767893,0.4068349,0.40616387,0.40571985,0.40511298,0.40431705,0.40374413,0.4034487,0.40283686,0.40192002,0.40151373,0.40108854,0.40046114,0.40001634,0.39950609,0.39925629,0.39878997,0.39780575,0.39746192,0.39709255,0.3966071,0.39618179,0.39575961,0.39526644,0.39451694,0.39378047,0.39339846,0.39276356,0.39198464,0.39143455,0.39056379,0.38966465,0.38852137,0.38723579,0.38649073,0.38541886,0.38415906,0.38290152,0.38172781,0.38071361,0.37955385,0.37844998,0.37734079,0.37601021,0.37464827,0.37358052,0.37272981,0.37175989,0.3706063,0.36973125,0.36914912,0.36832595,0.36721045,0.36632249,0.36589918,0.36549214,0.36442137,0.36388597,0.36366194,0.36312297,0.36253652,0.36244738
28,AuroraNIR,barley,Unknown,Italy,2017,12.4,15,0.16724311,0.16768511,0.16817951,0.16854011,0.16899878,0.16977035,0.17058888,0.17140996,0.17233357,0.17339681,0.17444187,0.17538556,0.17627057,0.1771851,0.17819904,0.17901665,0.17942326,0.17974688,0.18022269,0.18055481,0.18060219,0.18050611,0.18043312,0.18036625,0.1802167,0.17986581,0.17939895,0.17908525,0.17877425,0.17837383,0.17787892,0.17741229,0.17694965,0.17646652,0.1757592,0.17501503,0.17435744,0.17365767,0.17274214,0.17190787,0.17132908,0.17065947,0.16990155,0.16906016,0.16832568,0.16770107,0.16701949,0.16624811,0.16555186,0.16494496,0.16421939,0.16348836,0.1629367,0.16236651,0.16170049,0.16103166,0.16039197,0.15966712,0.15900148,0.15832812,0.15771723,0.15721755,0.15680189,0.15629378,0.15568589,0.15508416,0.15465942,0.154201,0.15370966,0.15338524,0.15313652,0.1527234,0.15239264,0.15227076,0.15207072,0.15185922,0.15167236,0.15147915,0.15120733,0.15109594,0.15110885,0.15112263,0.15107742,0.15120956,0.15154588,0.15203914,0.15273099,0.1535553,0.15455264,0.15588413,0.15773661,0.15978509,0.16206017,0.16466467,0.167575,0.17063396,0.17373693,0.17694269,0.18027838,0.18377507,0.18746719,0.19108558,0.19451196,0.19774233,0.20086998,0.20384024,0.20668325,0.20923014,0.21146777,0.213476,0.21536729,0.21735451,0.21924686,0.22085774,0.22245188,0.22417271,0.22590509,0.22751933,0.22875506,0.22996637,0.23110169,0.23209275,0.23287298,0.23348914,0.23400533,0.2344372,0.23474365,0.23457572,0.23425223,0.23398408,0.2334954,0.23287377,0.23197183,0.23086371,0.22958212,0.22840893,0.22707404,0.22537687,0.22369851,0.22225583,0.22086139,0.21949983,0.21817222,0.2169033,0.21580307,0.21494302,0.21393228,0.21288162,0.21199849,0.21126641,0.21051526,0.20977005,0.20919521,0.2087478,0.20838971,0.20797531,0.20753101,0.20716217,0.20689216,0.20647445,0.20608473,0.20569953,0.20516366,0.20476176,0.20440862,0.20388304,0.2032786,0.20274505,0.2023218,0.20183356,0.20135547,0.20099312,0.2008708,0.200712,0.20061913,0.20053829,0.20063931,0.200867,0.20121871,0.20167735,0.2022704,0.20298788,0.20384553,0.20476931,0.20594458,0.20733055,0.20885353,0.21049975,0.21233389,0.21431828,0.21641974,0.21866864,0.22114876,0.22364363,0.22617169,0.2288745,0.23162155,0.23431325,0.23711509,0.23995095,0.24274266,0.2453412,0.24795119,0.25043324,0.25265151,0.25496736,0.25727439,0.25937533,0.26138493,0.26324356,0.26498884,0.26653865,0.26803577,0.26965344,0.27144945,0.27352014,0.27591419,0.278714,0.28193811,0.28558558,0.28942093,0.29368144,0.29820859,0.30284876,0.307724,0.31298923,0.31854439,0.32418764,0.33010703,0.33632493,0.34228516,0.34785885,0.35340989,0.35910556,0.36448854,0.36942813,0.37392509,0.37819096,0.38222101,0.38575941,0.38878655,0.3918604,0.39459825,0.39667153,0.39835349,0.39984131,0.40121043,0.40249518,0.40332499,0.40394264,0.40481499,0.40545768,0.40589723,0.40630019,0.40670174,0.4070375,0.40719286,0.40720588,0.40725672,0.40727133,0.40704158,0.40660366,0.40645272,0.40605944,0.40519708,0.40432671,0.40351433,0.4028385,0.40217102,0.40120456,0.40017349,0.39932618,0.39840448,0.39735454,0.39626536,0.3952617,0.3943128,0.39324692,0.39224395,0.39133325,0.39023906,0.38906813,0.38801116,0.38708088,0.38598385,0.38495806,0.38421643,0.38348794,0.38267839,0.38185918,0.38116935,0.38056111,0.38012159,0.37958136,0.37894097,0.37849671,0.37829965,0.37782902,0.3770889,0.37675905,0.37638953,0.37585217,0.37554646,0.37523499,0.37507859,0.37468848,0.37389576,0.37372291,0.3734996,0.37311748,0.37278086,0.37254336,0.37221938,0.37166816,0.37116539,0.37087357,0.37031704,0.3697114,0.36938629,0.36867428,0.36788595,0.36687872,0.36578992,0.36522034,0.36414644,0.36304605,0.36208102,0.36101437,0.36009714,0.35914034,0.3582471,0.35729939,0.35619032,0.35491633,0.35394025,0.35327366,0.35244656,0.35147631,0.35074323,0.35023475,0.34950721,0.34857273,0.34786087,0.34751338,0.34711516,0.34612831,0.34578204,0.34559608,0.3451404,0.34482756,0.344791
29,AuroraNIR,barley,Unknown,Italy,2017,12.7,13.2,0.16453177,0.16516678,0.16590554,0.16658358,0.16735247,0.16837603,0.16943337,0.17053917,0.17185162,0.17332719,0.17460153,0.17572123,0.17705961,0.17848483,0.17966352,0.1805433,0.18123658,0.18186259,0.18246269,0.18287024,0.18301678,0.18296447,0.18288738,0.18286139,0.18275671,0.18235824,0.18185775,0.18163683,0.18136942,0.18085963,0.18031548,0.17989856,0.17933804,0.178675,0.1780033,0.17736089,0.17659195,0.17576015,0.17487228,0.17403278,0.17334627,0.17264314,0.17188445,0.17088622,0.1700072,0.16945982,0.16881785,0.16788882,0.16708857,0.16650856,0.16579582,0.16503777,0.16445488,0.16382194,0.1630688,0.16241285,0.1618626,0.16110958,0.16034991,0.15967639,0.15908599,0.15855527,0.15814534,0.15766962,0.1569989,0.15635084,0.15604995,0.1556717,0.15510121,0.15475723,0.15458386,0.15421197,0.15390401,0.15383241,0.15368022,0.15350892,0.15338725,0.15326434,0.15303439,0.1529623,0.15304872,0.15319714,0.15328717,0.15347269,0.15387499,0.15452564,0.15541959,0.15645494,0.15766682,0.15926582,0.16147637,0.16394338,0.16667584,0.16977474,0.17323355,0.17690247,0.18065068,0.18453039,0.18857387,0.19277304,0.19712582,0.20136605,0.20540744,0.20926915,0.21294434,0.21635842,0.21970531,0.22274604,0.22531277,0.22766192,0.22997291,0.23229034,0.23445651,0.23638165,0.23829901,0.24034557,0.24243234,0.24438632,0.24591483,0.24740958,0.24879363,0.24995627,0.25090212,0.25169122,0.25231719,0.252837,0.25323886,0.25308725,0.25272822,0.25244999,0.25191882,0.25117719,0.25008419,0.24875116,0.24725667,0.24591789,0.244398,0.24243426,0.24052539,0.23890203,0.23728941,0.2356918,0.23415194,0.23271912,0.23147966,0.23047562,0.22931668,0.22813521,0.22716168,0.22637652,0.22557037,0.22472513,0.22404343,0.22353016,0.2231618,0.22268555,0.22212537,0.22174865,0.22148398,0.2209823,0.22050205,0.22006676,0.21951817,0.2190946,0.2186884,0.21808326,0.21739864,0.21679819,0.21632378,0.21580003,0.21528968,0.21488887,0.21475664,0.21461235,0.2145282,0.21447568,0.21462899,0.21490827,0.21531336,0.2158286,0.21649085,0.21736416,0.2184381,0.21953025,0.22089896,0.22252524,0.22427632,0.2261824,0.22830735,0.23057309,0.23303963,0.2356979,0.23850188,0.24137673,0.24432473,0.24735042,0.25046498,0.25357342,0.25673991,0.25993857,0.2630904,0.26602697,0.26901692,0.27188009,0.27442384,0.27706477,0.27965292,0.28198069,0.2842972,0.28647581,0.28850049,0.29035547,0.29211113,0.29395583,0.29606017,0.2984069,0.30111426,0.30441755,0.30808026,0.31217235,0.3166106,0.32140905,0.3265003,0.33180591,0.33726311,0.3431862,0.34950733,0.35581693,0.36239564,0.36929429,0.37588245,0.38204885,0.388161,0.39438236,0.40026993,0.40565491,0.41053,0.41514865,0.41949931,0.42328319,0.42647395,0.42973804,0.43266109,0.43485713,0.43662462,0.43819416,0.43960723,0.44086128,0.44169897,0.44233435,0.44320434,0.44390237,0.44433302,0.44470799,0.44520071,0.4455317,0.44562948,0.44561273,0.44557357,0.4456349,0.44544592,0.44479889,0.44461459,0.44427827,0.44335446,0.44235843,0.44144458,0.44073889,0.44006258,0.43896967,0.43778533,0.43686587,0.43594077,0.43483895,0.43364051,0.43254524,0.43157202,0.43043804,0.42937016,0.42845321,0.42726657,0.42604274,0.42494255,0.42387888,0.42280301,0.42178181,0.42095104,0.42022103,0.41943261,0.41861138,0.41789508,0.4172594,0.41685528,0.41631612,0.41564178,0.41531643,0.41516119,0.41466191,0.41394645,0.41363487,0.41327712,0.4127807,0.41253364,0.41221625,0.41204792,0.41169292,0.41092134,0.41064748,0.41043407,0.41011035,0.4097141,0.40941155,0.40907851,0.40851429,0.40797949,0.40772441,0.40713984,0.40640211,0.40594378,0.40520787,0.40442729,0.40334603,0.40206695,0.40130359,0.40021646,0.39900264,0.39778268,0.39658073,0.39564401,0.3945474,0.39343986,0.3923049,0.39093795,0.38956612,0.38848332,0.38762924,0.38673782,0.38566029,0.38463992,0.3838554,0.38305479,0.38204342,0.38118684,0.38071698,0.38019726,0.3790046,0.3785665,0.37824163,0.37760809,0.37721324,0.37714785
30,AuroraNIR,barley,Unknown,Italy,2017,12.3,14,0.16847152,0.16906966,0.16977866,0.17040506,0.17113364,0.17214173,0.17316198,0.17419381,0.17543428,0.17687319,0.17816508,0.17928869,0.18050605,0.18178757,0.18297257,0.18392693,0.18462953,0.18520667,0.18573914,0.1860981,0.1862455,0.18626155,0.18626684,0.18622875,0.18607305,0.18570983,0.1852295,0.18488981,0.18449999,0.18397433,0.18343416,0.18299139,0.18241182,0.18173906,0.18104102,0.18038145,0.17963187,0.17876914,0.1777585,0.17685811,0.17620847,0.17547588,0.17466421,0.17376655,0.17296229,0.17225114,0.17149158,0.17065901,0.16988073,0.16917542,0.16838342,0.16760458,0.16698335,0.16632244,0.16556787,0.16485903,0.16421783,0.16345641,0.16272223,0.16198665,0.16129142,0.16066849,0.16014586,0.1595403,0.158774,0.15804511,0.15763819,0.15717313,0.15655029,0.15611652,0.15582186,0.15536442,0.15499081,0.1548434,0.15462632,0.15440749,0.15423664,0.15405968,0.15377474,0.15364246,0.15365721,0.15371948,0.15374786,0.15393732,0.15432498,0.15488315,0.15566191,0.15661022,0.15778762,0.15935875,0.16150583,0.1638896,0.16654931,0.16960517,0.17297018,0.17645986,0.18007797,0.18387693,0.18777867,0.19181649,0.19603521,0.20012018,0.20401083,0.20779622,0.21141279,0.21474347,0.21802847,0.22104906,0.22362515,0.22595525,0.22821188,0.23051047,0.23267965,0.2345915,0.2365033,0.23855087,0.24061677,0.24254739,0.24406146,0.24551784,0.24685806,0.24800509,0.24891502,0.24964657,0.25025499,0.25075245,0.2510922,0.25091249,0.25055641,0.25025868,0.24968088,0.24890813,0.2478593,0.24655277,0.24500771,0.24364209,0.24214101,0.24020424,0.23829697,0.23665625,0.23504332,0.23347317,0.23196003,0.23049781,0.22923228,0.22825792,0.22712934,0.22596732,0.2250091,0.22420144,0.2233716,0.22256505,0.22190738,0.22136711,0.22096865,0.22051817,0.22002658,0.21966127,0.21936998,0.21886501,0.21843508,0.21803185,0.21744189,0.21699098,0.21660383,0.2160387,0.21536338,0.21472804,0.21420862,0.21370596,0.21323788,0.21280664,0.21266823,0.21255067,0.21244337,0.21234192,0.21244553,0.21267888,0.21306348,0.21358523,0.2142559,0.2151088,0.21611859,0.2171168,0.21841964,0.22001064,0.2217087,0.22357789,0.22568373,0.22789858,0.23025887,0.23280638,0.23556733,0.23837337,0.24123552,0.24424909,0.24735668,0.25040835,0.25348145,0.25664508,0.2598058,0.2627137,0.26562977,0.26841721,0.270928,0.27357364,0.27617836,0.27849308,0.28073508,0.282875,0.28492224,0.28673699,0.2884199,0.29019016,0.2922051,0.29451138,0.29718965,0.30038473,0.30395412,0.30791372,0.3121075,0.31669325,0.32162359,0.32677305,0.3320424,0.33770517,0.34373817,0.3498345,0.3561843,0.36281908,0.36917415,0.37513682,0.38102716,0.38700861,0.39272973,0.39798254,0.40272349,0.40722138,0.41143936,0.41514221,0.41834569,0.42154935,0.42436707,0.42651489,0.42831612,0.42994413,0.43137836,0.43261448,0.43349591,0.43418294,0.43504161,0.43572342,0.43618056,0.43657845,0.43703666,0.43741471,0.4375751,0.43756688,0.43757904,0.43762961,0.43747127,0.43703634,0.43690151,0.43651682,0.43564415,0.43479264,0.43392333,0.43320531,0.43259013,0.43154234,0.43045926,0.42966557,0.42876568,0.42772129,0.42660722,0.42553359,0.42451072,0.42344642,0.42248431,0.42154789,0.42034584,0.41919124,0.41818619,0.41712442,0.41596633,0.41496018,0.41420102,0.41338137,0.41255069,0.41174066,0.41103318,0.41043097,0.40999019,0.40942964,0.40877053,0.4083201,0.40807137,0.40748799,0.40665585,0.40636629,0.40602791,0.40542963,0.40502715,0.4046762,0.40447566,0.40406883,0.40329897,0.40305752,0.40279752,0.4023892,0.40195733,0.40163687,0.401299,0.40068838,0.40007478,0.39981255,0.39919159,0.39845729,0.39804465,0.39722818,0.3963576,0.39530778,0.39412493,0.39336377,0.39224732,0.39106336,0.38992119,0.38871893,0.38760465,0.38641876,0.38541958,0.38438642,0.38289097,0.38146934,0.38036096,0.37943959,0.37856281,0.37745667,0.37643611,0.37564602,0.37474081,0.37361649,0.37270892,0.37217718,0.37158388,0.37038261,0.36986861,0.36947298,0.36870104,0.36807919,0.36791241
