ID,Spectrometer,Cereal,Variety,Country,Year,Moisture,Protein,400,402,404,406,408,410,412,414,416,418,420,422,424,426,428,430,432,434,436,438,440,442,444,446,448,450,452,454,456,458,460,462,464,466,468,470,472,474,476,478,480,482,484,486,488,490,492,494,496,498,500,502,504,506,508,510,512,514,516,518,520,522,524,526,528,530,532,534,536,538,540,542,544,546,548,550,552,554,556,558,560,562,564,566,568,570,572,574,576,578,580,582,584,586,588,590,592,594,596,598,600,602,604,606,608,610,612,614,616,618,620,622,624,626,628,630,632,634,636,638,640,642,644,646,648,650,652,654,656,658,660,662,664,666,668,670,672,674,676,678,680,682,684,686,688,690,692,694,696,698,700,702,704,706,708,710,712,714,716,718,720,722,724,726,728,730,732,734,736,738,740,742,744,746,748,750,752,754,756,758,760,762,764,766,768,770,772,774,776,778,780,782,784,786,788,790,792,794,796,798,800,802,804,806,808,810,812,814,816,818,820,822,824,826,828,830,832,834,836,838,840,842,844,846,848,850,852,854,856,858,860,862,864,866,868,870,872,874,876,878,880,882,884,886,888,890,892,894,896,898,900,902,904,906,908,910,912,914,916,918,920,922,924,926,928,930,932,934,936,938,940,942,944,946,948,950,952,954,956,958,960,962,964,966,968,970,972,974,976,978,980,982,984,986,988,990,992,994,996,998,1000,1002,1004,1006,1008,1010,1012,1014,1016,1018,1020,1022,1024,1026,1028,1030,1032,1034,1036,1038,1040,1042,1044,1046,1048,1050,1052,1054,1056,1058,1060,1062,1064,1066,1068,1070,1072,1074,1076,1078,1080,1082,1084,1086,1088,1090,1092,1094,1096,1098,1100,1102,1104,1106,1108,1110,1112,1114,1116,1118,1120,1122,1124,1126,1128,1130,1132,1134,1136,1138,1140,1142,1144,1146,1148,1150,1152,1154,1156,1158,1160,1162,1164,1166,1168,1170,1172,1174,1176,1178,1180,1182,1184,1186,1188,1190,1192,1194,1196,1198,1200,1202,1204,1206,1208,1210,1212,1214,1216,1218,1220,1222,1224,1226,1228,1230,1232,1234,1236,1238,1240,1242,1244,1246,1248,1250,1252,1254,1256,1258,1260,1262,1264,1266,1268,1270,1272,1274,1276,1278,1280,1282,1284,1286,1288,1290,1292,1294,1296,1298,1300,1302,1304,1306,1308,1310,1312,1314,1316,1318,1320,1322,1324,1326,1328,1330,1332,1334,1336,1338,1340,1342,1344,1346,1348,1350,1352,1354,1356,1358,1360,1362,1364,1366,1368,1370,1372,1374,1376,1378,1380,1382,1384,1386,1388,1390,1392,1394,1396,1398,1400,1402,1404,1406,1408,1410,1412,1414,1416,1418,1420,1422,1424,1426,1428,1430,1432,1434,1436,1438,1440,1442,1444,1446,1448,1450,1452,1454,1456,1458,1460,1462,1464,1466,1468,1470,1472,1474,1476,1478,1480,1482,1484,1486,1488,1490,1492,1494,1496,1498,1500,1502,1504,1506,1508,1510,1512,1514,1516,1518,1520,1522,1524,1526,1528,1530,1532,1534,1536,1538,1540,1542,1544,1546,1548,1550,1552,1554,1556,1558,1560,1562,1564,1566,1568,1570,1572,1574,1576,1578,1580,1582,1584,1586,1588,1590,1592,1594,1596,1598,1600,1602,1604,1606,1608,1610,1612,1614,1616,1618,1620,1622,1624,1626,1628,1630,1632,1634,1636,1638,1640,1642,1644,1646,1648,1650,1652,1654,1656,1658,1660,1662,1664,1666,1668,1670,1672,1674,1676,1678,1680,1682,1684,1686,1688,1690,1692,1694,1696,1698,1700,1702,1704,1706,1708,1710,1712,1714,1716,1718,1720,1722,1724,1726,1728,1730,1732,1734,1736,1738,1740,1742,1744,1746,1748,1750,1752,1754,1756,1758,1760,1762,1764,1766,1768,1770,1772,1774,1776,1778,1780,1782,1784,1786,1788,1790,1792,1794,1796,1798,1800,1802,1804,1806,1808,1810,1812,1814,1816,1818,1820,1822,1824,1826,1828,1830,1832,1834,1836,1838,1840,1842,1844,1846,1848,1850,1852,1854,1856,1858,1860,1862,1864,1866,1868,1870,1872,1874,1876,1878,1880,1882,1884,1886,1888,1890,1892,1894,1896,1898,1900,1902,1904,1906,1908,1910,1912,1914,1916,1918,1920,1922,1924,1926,1928,1930,1932,1934,1936,1938,1940,1942,1944,1946,1948,1950,1952,1954,1956,1958,1960,1962,1964,1966,1968,1970,1972,1974,1976,1978,1980,1982,1984,1986,1988,1990,1992,1994,1996,1998,2000,2002,2004,2006,2008,2010,2012,2014,2016,2018,2020,2022,2024,2026,2028,2030,2032,2034,2036,2038,2040,2042,2044,2046,2048,2050,2052,2054,2056,2058,2060,2062,2064,2066,2068,2070,2072,2074,2076,2078,2080,2082,2084,2086,2088,2090,2092,2094,2096,2098,2100,2102,2104,2106,2108,2110,2112,2114,2116,2118,2120,2122,2124,2126,2128,2130,2132,2134,2136,2138,2140,2142,2144,2146,2148,2150,2152,2154,2156,2158,2160,2162,2164,2166,2168,2170,2172,2174,2176,2178,2180,2182,2184,2186,2188,2190,2192,2194,2196,2198,2200,2202,2204,2206,2208,2210,2212,2214,2216,2218,2220,2222,2224,2226,2228,2230,2232,2234,2236,2238,2240,2242,2244,2246,2248,2250,2252,2254,2256,2258,2260,2262,2264,2266,2268,2270,2272,2274,2276,2278,2280,2282,2284,2286,2288,2290,2292,2294,2296,2298,2300,2302,2304,2306,2308,2310,2312,2314,2316,2318,2320,2322,2324,2326,2328,2330,2332,2334,2336,2338,2340,2342,2344,2346,2348,2350,2352,2354,2356,2358,2360,2362,2364,2366,2368,2370,2372,2374,2376,2378,2380,2382,2384,2386,2388,2390,2392,2394,2396,2398,2400,2402,2404,2406,2408,2410,2412,2414,2416,2418,2420,2422,2424,2426,2428,2430,2432,2434,2436,2438,2440,2442,2444,2446,2448,2450,2452,2454,2456,2458,2460,2462,2464,2466,2468,2470,2472,2474,2476,2478,2480,2482,2484,2486,2488,2490,2492,2494,2496,2498
7693,FOSS_NIRSystem6500,barley,Unknown,Spain,1999,10.40,11.20,0.249042,0.2535343,0.2571175,0.2599487,0.2624484,0.2644434,0.2657804,0.2666139,0.2672165,0.2675788,0.2674742,0.2670639,0.2665743,0.2658785,0.2647686,0.2634498,0.2622862,0.2611265,0.2597531,0.2583733,0.257107,0.2558278,0.2545314,0.253337,0.2522173,0.2511171,0.2500502,0.2490334,0.2480344,0.2470254,0.246008,0.2449451,0.243793,0.2425493,0.2412761,0.23998,0.2386437,0.2372643,0.2358796,0.2345538,0.2332836,0.2319816,0.2305906,0.2290884,0.2275334,0.2259517,0.2242441,0.222313,0.2201824,0.2179473,0.2155351,0.2129598,0.2103251,0.207628,0.205037,0.2027923,0.2008044,0.1988327,0.1968476,0.194817,0.1928397,0.1912443,0.1899839,0.1888075,0.1876754,0.1866218,0.1855847,0.1846535,0.1839027,0.1831231,0.1822449,0.1813518,0.1804381,0.1794891,0.178565,0.1776524,0.1766788,0.1756288,0.1745487,0.1735303,0.1726032,0.1716781,0.1706326,0.1694389,0.1682816,0.1672896,0.1664207,0.1655774,0.164697,0.1638037,0.1630605,0.1625023,0.1618828,0.1610642,0.1602601,0.1595578,0.1588953,0.1582585,0.1576268,0.1569521,0.1562716,0.1556387,0.1550355,0.1544276,0.1537875,0.1531106,0.1524588,0.1518826,0.1513654,0.1508433,0.1502936,0.1497436,0.1492158,0.1486824,0.1481133,0.1475437,0.1470172,0.1465057,0.1459627,0.1453978,0.1448166,0.1442112,0.1435957,0.1429975,0.1424135,0.141831,0.1412411,0.1406351,0.1400197,0.1394088,0.1388096,0.1382297,0.1376864,0.1371669,0.1366483,0.1361254,0.1356083,0.1351069,0.1346316,0.1341983,0.13379,0.1333605,0.1329133,0.1325306,0.1322604,0.1320316,0.1317743,0.1315081,0.1312744,0.1310651,0.1308535,0.1306468,0.1304654,0.1303003,0.130132,0.129961,0.1297933,0.1296172,0.1294275,0.1292378,0.1290526,0.128862,0.1286629,0.1284581,0.1282526,0.128055,0.1278721,0.1276975,0.1275243,0.1273498,0.1271827,0.1270427,0.1269268,0.1268267,0.1267374,0.1266495,0.1265272,0.1263503,0.1261065,0.1258015,0.1254311,0.1250287,0.1246244,0.1242223,0.123829,0.1234566,0.1231241,0.1229037,0.1228586,0.1229155,0.1229503,0.1229092,0.1227975,0.1226377,0.1224423,0.1222345,0.1220394,0.1218643,0.121697,0.1215322,0.12137,0.1212092,0.1210495,0.1208924,0.1207378,0.1205848,0.1204377,0.1202973,0.1201601,0.1200259,0.1198883,0.1197422,0.1196021,0.1194775,0.1193565,0.1192334,0.1191138,0.1189968,0.1188885,0.1187926,0.1186947,0.1185816,0.1184646,0.1183513,0.1182335,0.1181124,0.1180001,0.1178987,0.1178,0.1176997,0.1176017,0.1175116,0.1174295,0.1173481,0.1172689,0.1171957,0.1171259,0.1170619,0.1170085,0.1169656,0.1169257,0.1168876,0.116856,0.1168338,0.1168096,0.1167726,0.1167397,0.1167402,0.1167808,0.1168293,0.1168618,0.1168821,0.1168973,0.116898,0.1168875,0.1168726,0.1168509,0.1168157,0.116774,0.1167373,0.1167009,0.116652,0.1165905,0.1165288,0.1164634,0.1163919,0.1163233,0.1162626,0.1162053,0.1161494,0.1160983,0.1160609,0.1160364,0.116027,0.1160395,0.1160764,0.1161368,0.1162197,0.1163317,0.1164638,0.1166189,0.1167972,0.117,0.117222,0.1174595,0.1177122,0.1179739,0.1182367,0.1184935,0.118736,0.1189589,0.1191538,0.1193196,0.1194554,0.1195562,0.1196277,0.1196698,0.1196856,0.1196713,0.1196415,0.119598,0.1195372,0.1194596,0.1193702,0.1192703,0.1191585,0.1190432,0.1189273,0.1188043,0.1186742,0.1185435,0.1184058,0.1182583,0.1181087,0.1179601,0.1178119,0.1176653,0.1175173,0.1173663,0.1172197,0.1170874,0.1169667,0.1168478,0.116725,0.1166052,0.1164902,0.1163611,0.116214,0.1160907,0.116014,0.1159331,0.1158217,0.1157027,0.1155889,0.1154775,0.1153565,0.115227,0.1151199,0.1150431,0.1149633,0.1148767,0.1147996,0.1147293,0.1146615,0.1146036,0.1145519,0.1144998,0.1144539,0.1144214,0.1143843,0.0975041,0.0974798,0.0974744,0.0974836,0.0975086,0.0975447,0.0975959,0.0976617,0.0977434,0.0978437,0.0979693,0.0981186,0.0983007,0.098529,0.0988095,0.0991565,0.0995744,0.1000697,0.1006278,0.1012459,0.101906,0.1026326,0.1034189,0.1042599,0.1051383,0.1060594,0.1070103,0.1079839,0.1089653,0.1099402,0.1109021,0.1118394,0.1127402,0.1136029,0.1144333,0.1152452,0.1160524,0.1168606,0.1176696,0.118482,0.1192977,0.1201044,0.1208812,0.1216223,0.1223052,0.1229244,0.1234521,0.123899,0.1242434,0.1245091,0.1246819,0.1247665,0.1247519,0.1246518,0.1244483,0.1241554,0.1237712,0.1233043,0.1227634,0.1221712,0.1215441,0.120902,0.1202596,0.1196262,0.1190126,0.1184277,0.1178769,0.1173617,0.1168824,0.1164454,0.1160512,0.1157,0.1153869,0.1151065,0.1148528,0.1146298,0.1144338,0.114261,0.1141041,0.1139588,0.1138221,0.1136956,0.1135758,0.1134564,0.1133311,0.1132005,0.1130676,0.1129259,0.1127676,0.1125948,0.11242,0.1122467,0.1120734,0.1119046,0.1117445,0.1115975,0.11147,0.1113676,0.1112884,0.1112349,0.1112064,0.1112106,0.1112519,0.1113342,0.111459,0.1116313,0.1118499,0.1121195,0.112442,0.1128224,0.1132617,0.1137608,0.1143265,0.1149621,0.1156661,0.1164374,0.1172773,0.1181772,0.1191398,0.1201613,0.1212404,0.1223621,0.1235224,0.1247161,0.1259453,0.1271967,0.1284589,0.1297192,0.1309634,0.1321823,0.1333611,0.1345024,0.1355923,0.136639,0.1376453,0.1386303,0.1396069,0.1405964,0.141638,0.1427677,0.1440205,0.1454323,0.1470274,0.1488242,0.1508409,0.1531108,0.1556294,0.1584389,0.1615017,0.1648658,0.1684968,0.1724439,0.1766461,0.1811205,0.1857766,0.1906095,0.1955559,0.2005711,0.2056012,0.2105892,0.2154843,0.2202425,0.2247907,0.2291065,0.233125,0.2368599,0.2402591,0.2433557,0.2460734,0.2484931,0.2505883,0.2524214,0.2539979,0.2553443,0.2564886,0.2574654,0.2583044,0.2590145,0.2596172,0.2601042,0.2605041,0.2607972,0.2609903,0.2610651,0.2610449,0.2609382,0.2607384,0.2604441,0.2600602,0.2596018,0.2590691,0.2584861,0.2578505,0.2571684,0.2564408,0.2556842,0.2548949,0.254071,0.2532263,0.2523704,0.2515078,0.2506364,0.2497598,0.2488897,0.2480308,0.2471794,0.2463266,0.2454738,0.2446488,0.2438676,0.2431328,0.2424238,0.2417383,0.2410855,0.2404821,0.2399285,0.2394167,0.2389441,0.2384999,0.2380898,0.2377136,0.2373697,0.2370388,0.2367191,0.2364277,0.2361541,0.2358863,0.2356306,0.2353847,0.2351497,0.2349413,0.2347293,0.2344759,0.2341842,0.2338707,0.2335184,0.2331248,0.2326868,0.2321963,0.2316563,0.231058,0.2304079,0.2296956,0.2289228,0.2280863,0.2271829,0.2262262,0.2252122,0.2241569,0.2230652,0.2219373,0.2207835,0.2196209,0.2184485,0.2172606,0.2160682,0.2148843,0.2137161,0.2125577,0.2114114,0.2102838,0.2091794,0.2080957,0.2070316,0.2059929,0.2049778,0.2039886,0.2030264,0.202093,0.2011971,0.2003386,0.1995201,0.1987401,0.1980039,0.1973195,0.1966901,0.1961334,0.1956495,0.1952455,0.1949265,0.1946788,0.1945043,0.194396,0.1943564,0.1944008,0.1945472,0.1948346,0.1952743,0.1958945,0.1967221,0.1977461,0.1989818,0.2003842,0.2019166,0.2035127,0.2051017,0.2066249,0.2080308,0.2092916,0.2103544,0.2112221,0.2118835,0.2123647,0.2127139,0.2129754,0.2132154,0.2134702,0.2137574,0.2140707,0.2144091,0.2147616,0.2151005,0.2153889,0.2156349,0.2158481,0.216031,0.2161967,0.2163668,0.2165639,0.2168022,0.2170914,0.2174191,0.2177696,0.2181138,0.2184364,0.2187282,0.2189822,0.2191985,0.219384,0.2195459,0.2196852,0.2198107,0.2199153,0.2199862,0.2200306,0.2200509,0.2200378,0.219981,0.2198531,0.2196201,0.2192988,0.2188828,0.2183603,0.2177548,0.2170701,0.2163214,0.2155353,0.2147175,0.2138783,0.2130311,0.212189,0.2113712,0.2105865,0.2098412,0.2091341,0.2084728,0.2078641,0.2072832,0.2067142,0.206141,0.2055545,0.204949,0.2043099,0.2036377,0.2029353,0.2022042,0.2014512,0.2006748,0.1998712,0.1990618,0.1982812,0.19755,0.1968848,0.1963158,0.1958628,0.1955407,0.1953687,0.1953585,0.1955093,0.1958329,0.1963583,0.1970854,0.1980417,0.1992787,0.2007885,0.2025964,0.2047501,0.2072457,0.2101182,0.2134636,0.2173135,0.2217372,0.2268805,0.2327293,0.2392857,0.2465966,0.2545659,0.2631419,0.272274,0.2818216,0.2916563,0.3015993,0.3114345,0.3209983,0.3301541,0.3387834,0.3468719,0.3543985,0.3613226,0.3676516,0.3733313,0.3782668,0.3824529,0.3858929,0.3885571,0.3903911,0.3914478,0.3917651,0.3913428,0.3903007,0.3887498,0.3867492,0.3844031,0.3818119,0.3790404,0.3761521,0.3731869,0.3701775,0.3671564,0.3641524,0.3611701,0.3582242,0.355329,0.3524689,0.3496531,0.3468825,0.344148,0.3414299,0.3387167,0.3360142,0.3333211,0.3306478,0.3280129,0.3254455,0.3229481,0.3205383,0.3182463,0.3160837,0.3140701,0.3122298,0.310585,0.3091561,0.3079476,0.3069808,0.3062605,0.3057794,0.3055565,0.3055997,0.305922,0.30651,0.3073573,0.3084629,0.3098417,0.3114519,0.3132657,0.3152729,0.3174593,0.3197953,0.3222597,0.3248327,0.3274888,0.3301974,0.3329391,0.3356898,0.3384265,0.341118,0.3437432,0.3462741,0.3486868,0.3509833,0.3531506,0.3552005,0.3571605,0.3590355,0.3608217,0.3625086,0.3641151,0.3656465,0.3670879,0.3684445,0.3697175,0.3708963,0.3719808,0.3729841,0.3738962,0.3747168,0.3754434,0.3760716,0.376606,0.3770426,0.3773723,0.3775856,0.3776903,0.3777001,0.3776205,0.3774361,0.3771474,0.3767714,0.3762937,0.37572,0.3750603,0.3743036,0.3734645,0.3725442,0.371547,0.3704966,0.3693832,0.3682203,0.3670315,0.3658023,0.3645301,0.3632134,0.3618539,0.3604685,0.3590643,0.3576433,0.3562145,0.3548053,0.3534172,0.3520313,0.3506451,0.3492664,0.3478965,0.3465318,0.3451483,0.3437499,0.3423499,0.34094,0.3395244,0.3381037,0.3366969,0.3353119,0.3339063,0.3324668,0.3310333,0.3296177,0.328232,0.3268745,0.3255422,0.3242591,0.3230136,0.3217926,0.3206231,0.319517,0.3184596,0.3174498,0.3165084,0.315653,0.3148798,0.314197,0.31363,0.31321,0.3129671,0.3129099,0.3130798,0.3135306,0.3142794,0.3153283,0.3167221,0.31845,0.3204895,0.3228721,0.3255976,0.3286094,0.3318779,0.3354141,0.3391556,0.3430509,0.3470447,0.3510786,0.3551127,0.3591233,0.3630863,0.3669821,0.3708271,0.3746224,0.378404,0.3821493,0.3857679,0.3891172,0.3920178,0.394262,0.3957323,0.3964818,0.3966353,0.3964592,0.3962328,0.3961816,0.3964675,0.397191,0.3983487,0.3998216,0.4015074,0.4032583,0.4048792,0.4062517,0.4072978,0.4080158,0.4084516,0.4086851,0.4087691,0.4087219,0.4085524,0.408262,0.4078712,0.4074037,0.4069002,0.4064116,0.4059854,0.4056248,0.4053161,0.4050317,0.4047315,0.4043422,0.4037921,0.4031005,0.4023323,0.4015627,0.400868,0.4003079,0.3999283,0.3996986,0.3995591,0.3994837,0.3994505,0.3994224,0.3993683,0.3993048,0.3992454,0.3991691,0.3991123,0.3991263,0.3992446,0.3994937,0.3998798,0.4004213,0.4011463,0.4020627,0.4031581,0.4044708,0.4059846,0.4077159,0.4096619,0.4117569,0.4139654,0.4162979,0.4187314,0.4212467,0.4238209,0.426455,0.4291394,0.4318297,0.4345586,0.4372839,0.4399972,0.442833,0.4457431,0.4487017,0.4517575,0.4548659,0.4580209,0.4611978,0.464316,0.4673794,0.4703606,0.4732636,0.4761386,0.4789703,0.4817442,0.4844975,0.4872252,0.4899097,0.4925229,0.4950637,0.497497,0.4998335,0.5020382,0.5040601,0.5058696,0.5074845,0.5088894,0.5100816,0.5110449,0.5117984,0.5123538,0.5126359,0.5126895,0.5125743,0.5122739,0.5118243
7736,FOSS_NIRSystem6500,barley,Unknown,Spain,1999,10.60,11.60,0.2513514,0.2563441,0.2608165,0.2643462,0.2669023,0.2691057,0.2710718,0.2725449,0.273426,0.2738529,0.2739909,0.2738656,0.273566,0.2731881,0.2726993,0.2718477,0.2705039,0.2690999,0.267888,0.2667252,0.2654219,0.2640101,0.2626514,0.2614119,0.2602797,0.2591885,0.2581061,0.2570779,0.2561275,0.255123,0.2540052,0.2528921,0.2518294,0.2507146,0.2494694,0.248132,0.2467622,0.2454131,0.2440324,0.2425604,0.241084,0.2396883,0.2383491,0.2369845,0.2354881,0.2338178,0.2318946,0.2297849,0.2276777,0.2255816,0.2232803,0.2208044,0.2184762,0.2163244,0.2141219,0.2118196,0.2095628,0.207473,0.2055308,0.2037075,0.2020261,0.2004993,0.1990327,0.1976889,0.1966345,0.195754,0.1948808,0.1939229,0.192942,0.1921438,0.1915031,0.1907523,0.1898147,0.1888281,0.1878171,0.1867951,0.1858595,0.1849479,0.1839438,0.1828671,0.181774,0.1806611,0.1795933,0.1786414,0.1777427,0.1767421,0.1755806,0.1744212,0.1733928,0.1724697,0.1715548,0.1706515,0.1698517,0.1691983,0.168568,0.1678679,0.1671572,0.1664618,0.165728,0.1649894,0.1642914,0.1635939,0.1628901,0.1622293,0.1615932,0.1609213,0.1601994,0.1594958,0.1588889,0.1583604,0.1578271,0.1572357,0.1566256,0.1560366,0.1554461,0.1548236,0.1541914,0.1535896,0.1530259,0.1524596,0.1518533,0.1512069,0.1505526,0.149905,0.1492641,0.1486443,0.1480447,0.1474468,0.1468327,0.1461922,0.1455364,0.1449032,0.1442937,0.1436909,0.1431131,0.1425746,0.1420269,0.1414551,0.1408965,0.1403687,0.1398766,0.139413,0.1389442,0.1384429,0.1379654,0.1375962,0.1373023,0.1370098,0.1366936,0.1363871,0.136109,0.1358303,0.1355345,0.1352561,0.1350111,0.1347681,0.1345147,0.1342589,0.1339903,0.1336984,0.1334025,0.13311,0.1328118,0.1325086,0.1322085,0.1319106,0.1316144,0.1313303,0.1310652,0.1308077,0.1305456,0.1302927,0.13006,0.1298426,0.1296348,0.1294277,0.1291923,0.1289244,0.12863,0.1282894,0.1278697,0.1273932,0.1269087,0.1264265,0.1259475,0.1254773,0.1250355,0.1246979,0.124553,0.1245309,0.1245103,0.1244258,0.1242787,0.1240809,0.1238422,0.1235841,0.1233329,0.1230945,0.1228635,0.1226398,0.1224198,0.1221983,0.121981,0.1217751,0.1215783,0.12138,0.1211808,0.1209884,0.120804,0.1206277,0.1204579,0.1202884,0.1201086,0.1199226,0.1197491,0.1195909,0.1194366,0.1192836,0.119133,0.1189768,0.118822,0.1186849,0.1185548,0.1184121,0.1182643,0.1181188,0.1179698,0.1178209,0.1176826,0.1175519,0.1174222,0.1172974,0.1171846,0.1170743,0.1169626,0.1168578,0.1167626,0.1166719,0.1165862,0.1165109,0.1164413,0.1163777,0.1163224,0.1162792,0.1162484,0.1162135,0.1161556,0.1160999,0.116094,0.1161239,0.1161411,0.1161313,0.1161142,0.1160886,0.1160506,0.1160127,0.1159726,0.1159113,0.1158428,0.1157892,0.1157366,0.1156676,0.1155949,0.1155262,0.1154451,0.1153557,0.1152764,0.1152075,0.1151411,0.1150782,0.1150213,0.1149755,0.114944,0.1149326,0.1149391,0.1149696,0.115028,0.1151144,0.1152267,0.1153619,0.1155261,0.1157111,0.1159176,0.1161423,0.1163831,0.1166342,0.1168914,0.1171485,0.1173982,0.1176328,0.1178491,0.1180355,0.1181931,0.1183176,0.1184114,0.1184743,0.1185075,0.118511,0.1184833,0.1184397,0.118383,0.1183103,0.1182186,0.1181172,0.1180043,0.1178775,0.1177435,0.1176085,0.1174698,0.1173282,0.1171853,0.1170315,0.1168685,0.1167064,0.1165442,0.1163774,0.1162113,0.1160479,0.1158843,0.1157231,0.1155718,0.1154291,0.1152875,0.1151444,0.1150084,0.1148743,0.1147224,0.114561,0.1144264,0.1143207,0.1142032,0.1140583,0.1139079,0.1137604,0.1136123,0.1134606,0.1133077,0.113174,0.1130653,0.1129651,0.1128634,0.112768,0.1126807,0.1125971,0.1125177,0.1124479,0.1123849,0.1123237,0.1122803,0.1122447,0.0952219,0.0951929,0.0951791,0.0951815,0.0951971,0.0952227,0.0952579,0.0953074,0.0953698,0.0954551,0.0955698,0.0957198,0.0958966,0.0961249,0.096414,0.0967829,0.0972261,0.0977453,0.0983299,0.0989811,0.0996947,0.100467,0.1012985,0.102185,0.1031303,0.104119,0.1051365,0.106171,0.1072189,0.1082642,0.1092927,0.1102984,0.1112606,0.1121806,0.1130597,0.113919,0.1147714,0.1156228,0.1164752,0.1173305,0.1181873,0.1190355,0.1198577,0.1206398,0.1213647,0.1220106,0.1225664,0.1230273,0.123396,0.1236663,0.123851,0.1239407,0.1239419,0.1238425,0.1236526,0.1233557,0.1229669,0.1224776,0.1219182,0.121292,0.1206278,0.119941,0.1192488,0.1185664,0.1179086,0.1172875,0.1166974,0.1161511,0.1156436,0.115183,0.1147635,0.1143903,0.114051,0.1137462,0.1134722,0.1132323,0.1130155,0.1128225,0.11265,0.1124937,0.1123472,0.1122077,0.1120727,0.1119441,0.1118169,0.1116824,0.1115411,0.1113926,0.111232,0.1110586,0.1108831,0.1107075,0.1105293,0.1103564,0.1101943,0.1100453,0.1099139,0.1098078,0.109724,0.1096709,0.109648,0.1096636,0.1097172,0.1098174,0.1099579,0.110147,0.1103782,0.1106683,0.1110113,0.1114206,0.1118879,0.1124256,0.1130228,0.1137013,0.1144444,0.1152596,0.1161357,0.1170865,0.1180981,0.1191704,0.1202891,0.1214553,0.12266,0.1239041,0.1251768,0.1264757,0.1277979,0.1291248,0.1304292,0.1317033,0.132948,0.134159,0.1353272,0.1364554,0.1375505,0.1386283,0.1397079,0.1408082,0.1419672,0.1432111,0.1445897,0.1461057,0.1478191,0.1497127,0.1518454,0.1542033,0.1568336,0.1597276,0.1629113,0.1663746,0.1701367,0.1741863,0.178511,0.1830834,0.1878383,0.1927653,0.1978066,0.2029032,0.2080053,0.2130528,0.2180073,0.2228065,0.2274151,0.2317687,0.2358637,0.2396474,0.243115,0.2462527,0.2490513,0.2515502,0.2537237,0.2556228,0.2572521,0.2586721,0.2598637,0.2608968,0.2617694,0.2625157,0.2631446,0.263676,0.264112,0.2644296,0.2646283,0.2647139,0.2647202,0.2646288,0.2644412,0.2641454,0.2637687,0.2633109,0.2627814,0.2621848,0.2615322,0.2608401,0.2601064,0.2593386,0.2585315,0.2576951,0.2568362,0.2559614,0.2550732,0.2541738,0.2532625,0.2523497,0.2514439,0.2505443,0.2496478,0.248757,0.2478907,0.2470728,0.2462976,0.2455443,0.2448144,0.2441213,0.2434848,0.2428925,0.2423444,0.2418337,0.2413576,0.2409168,0.2405062,0.2401208,0.2397511,0.2394074,0.2390917,0.2387926,0.2385041,0.2382265,0.2379556,0.2377042,0.2374835,0.2372496,0.2369746,0.2366726,0.2363458,0.23598,0.2355781,0.2351291,0.2346373,0.2340966,0.2334998,0.2328476,0.2321255,0.2313444,0.230508,0.2296133,0.2286521,0.2276385,0.2265842,0.2254811,0.2243429,0.223182,0.2220074,0.220819,0.2196276,0.2184401,0.2172554,0.2160793,0.214916,0.2137686,0.2126365,0.2115197,0.2104235,0.2093552,0.2083111,0.2072919,0.2063104,0.2053636,0.2044447,0.2035505,0.2026901,0.201872,0.2010958,0.200369,0.1996905,0.1990729,0.1985353,0.1980804,0.197723,0.1974487,0.1972562,0.1971426,0.1970949,0.1971144,0.1971953,0.1973603,0.197644,0.1980614,0.1986664,0.1994734,0.2004996,0.2017478,0.2031618,0.2047203,0.2063439,0.2079676,0.2095251,0.2109693,0.2122577,0.2133638,0.2142767,0.2149687,0.2154872,0.2158636,0.2161585,0.2164228,0.2167012,0.2170167,0.2173638,0.2177369,0.2181125,0.2184709,0.2187974,0.2190644,0.2192543,0.2194084,0.2195412,0.2196589,0.2197939,0.219977,0.2202155,0.2204972,0.2208071,0.2211244,0.2214363,0.2217236,0.2219772,0.2222001,0.2224059,0.2225934,0.2227488,0.2228709,0.2229633,0.2230226,0.223054,0.2230563,0.2230179,0.2229395,0.2228057,0.2225705,0.2222275,0.2217873,0.2212598,0.2206543,0.2199739,0.2192298,0.2184355,0.2176092,0.2167692,0.2159185,0.2150676,0.2142328,0.2134268,0.2126697,0.2119614,0.211301,0.210688,0.2101043,0.2095338,0.2089581,0.2083676,0.2077586,0.2071159,0.2064369,0.2057289,0.2049982,0.2042488,0.2034801,0.2026925,0.2018955,0.2011177,0.2003885,0.1997298,0.1991704,0.1987202,0.1984023,0.1982454,0.1982464,0.198416,0.1987785,0.1993415,0.2001088,0.2011198,0.2024174,0.2040214,0.205971,0.2082635,0.2108995,0.2139328,0.2174368,0.2214651,0.2260922,0.2314384,0.2375147,0.2443387,0.2519463,0.2601926,0.2690463,0.2784831,0.2883188,0.2984703,0.3087534,0.3189187,0.3288006,0.3382358,0.3471475,0.3555037,0.363273,0.3704077,0.3769342,0.3828309,0.3879698,0.3923849,0.3960557,0.398894,0.4009089,0.4021438,0.4026238,0.4023401,0.4014294,0.3999866,0.3980606,0.3957871,0.3932473,0.3904875,0.3876036,0.3846632,0.3816625,0.3786025,0.3755387,0.3724895,0.3694708,0.3665027,0.3635636,0.3606561,0.3577875,0.3549469,0.35212,0.3493078,0.3465128,0.3437189,0.3409467,0.3382121,0.3355241,0.3329084,0.3303871,0.3279748,0.3256788,0.3235272,0.3215421,0.3197554,0.3181685,0.316788,0.315639,0.3147453,0.3140947,0.3136941,0.3135486,0.3136839,0.3140703,0.314717,0.3156377,0.3168345,0.3182575,0.3198869,0.3217149,0.3237149,0.3258666,0.3281656,0.3305886,0.3331058,0.3356831,0.3383097,0.3409472,0.3435654,0.3461537,0.3486759,0.3511048,0.3534184,0.3556184,0.3577111,0.3596734,0.3615006,0.3632565,0.3649481,0.3665491,0.368068,0.3695095,0.3708818,0.3721804,0.3733997,0.3745247,0.3755575,0.3765143,0.3773843,0.3781705,0.3788734,0.379475,0.3799746,0.3803918,0.3807199,0.3809386,0.3810654,0.3810906,0.3810143,0.3808479,0.380589,0.3802396,0.3798039,0.3792842,0.3786725,0.3779689,0.3771943,0.3763516,0.3754351,0.3744621,0.3734346,0.3723487,0.3712114,0.370028,0.3688066,0.3675365,0.3662173,0.3648628,0.3634932,0.362123,0.3607566,0.3594129,0.3580918,0.356779,0.3554674,0.3541491,0.3528069,0.3514432,0.3500586,0.3486589,0.3472579,0.3458561,0.3444498,0.3430431,0.341647,0.3402514,0.33885,0.3374563,0.3360831,0.3347361,0.3334331,0.3321586,0.3309063,0.3296981,0.3285269,0.327392,0.3263005,0.3252474,0.3242221,0.3232413,0.3223115,0.3214375,0.3206482,0.3199494,0.3193699,0.3189348,0.3186572,0.3185696,0.3187101,0.3191167,0.319848,0.3208974,0.3222794,0.323989,0.3260332,0.328427,0.3311411,0.334159,0.3374355,0.3409502,0.3446722,0.3485321,0.3524888,0.3565085,0.3605326,0.3645261,0.36849,0.3723934,0.3762152,0.3799936,0.3837492,0.3874485,0.3910355,0.3943537,0.3972108,0.3994156,0.400882,0.4016548,0.4018385,0.4017097,0.4015215,0.4015042,0.4018513,0.4026335,0.4038466,0.4053996,0.4071542,0.4089307,0.4105431,0.411878,0.4128594,0.4135054,0.4138842,0.4140436,0.4140456,0.4139594,0.4137631,0.4134478,0.41305,0.412595,0.4121304,0.4116906,0.411315,0.4110105,0.4107651,0.4105692,0.4103583,0.4100285,0.4095315,0.4088843,0.4081118,0.407323,0.4066424,0.4060879,0.4056934,0.4054675,0.4053488,0.4053033,0.4053077,0.4053068,0.4052768,0.405236,0.4052037,0.4051585,0.4051478,0.4052344,0.4054229,0.4057159,0.4061529,0.4067814,0.4075702,0.4085407,0.4096955,0.4110244,0.4125424,0.4142754,0.41621,0.418294,0.4204995,0.4228032,0.4251957,0.4276781,0.4302267,0.4328366,0.4354874,0.438155,0.440854,0.4436022,0.4463034,0.4489994,0.451869,0.4548227,0.4578289,0.4609124,0.4640054,0.4671154,0.4702021,0.473275,0.4762799,0.4791515,0.4819749,0.4848085,0.4875884,0.490328,0.4930456,0.4956903,0.4982702,0.5008036,0.5032315,0.5055198,0.5076754,0.509683,0.5114632,0.5130239,0.5143849,0.5155457,0.5165105,0.5172303,0.5177613,0.5180998,0.5181971,0.5180601,0.5177405,0.5173389
7737,FOSS_NIRSystem6500,barley,Unknown,Spain,1999,11.40,10.60,0.2523467,0.2571816,0.2612075,0.2645054,0.2671681,0.2694634,0.2713457,0.2727687,0.273746,0.2743387,0.274647,0.2747013,0.2745392,0.2742576,0.2739494,0.2733671,0.2722743,0.2711022,0.2701164,0.2691058,0.2679511,0.2668058,0.2657022,0.2645842,0.2635516,0.2626372,0.2617344,0.2608396,0.2600289,0.2592261,0.2583228,0.257306,0.2562486,0.255266,0.2543499,0.2532569,0.2519187,0.2505959,0.2493593,0.2481232,0.2469011,0.2456587,0.2443504,0.2430654,0.2417571,0.2402188,0.2384408,0.2366828,0.2350194,0.2332189,0.2311512,0.2290363,0.227183,0.2255113,0.2237893,0.2220042,0.2202492,0.218588,0.2170062,0.2154624,0.2140438,0.2128309,0.2116141,0.2104024,0.2095898,0.2090851,0.2084917,0.20774,0.2069943,0.2063046,0.2057029,0.2051936,0.2045965,0.2038255,0.202949,0.2020401,0.2011565,0.2003675,0.1995823,0.198615,0.1975507,0.1966002,0.1957363,0.1948553,0.1940033,0.1931423,0.1920963,0.1910115,0.1901247,0.1893533,0.1885235,0.1877044,0.1869519,0.1862366,0.1855867,0.1849871,0.1843465,0.1836678,0.1829862,0.1822896,0.1815883,0.1809093,0.1802314,0.1795629,0.1789236,0.1782708,0.177569,0.1768719,0.176225,0.1756251,0.175056,0.1744765,0.1738634,0.1732363,0.1726031,0.1719423,0.1712648,0.1706006,0.1699585,0.1693258,0.1686833,0.1680019,0.1672807,0.1665583,0.165866,0.1651795,0.1644734,0.1637779,0.163109,0.1624161,0.1616759,0.1609435,0.1602495,0.1595645,0.1588675,0.158192,0.1575529,0.1569206,0.1562701,0.1556171,0.1549908,0.1543934,0.1538065,0.1532111,0.1526304,0.1521064,0.1516397,0.1512281,0.1508354,0.1504302,0.1500142,0.149604,0.1492046,0.1488124,0.1484182,0.1480191,0.147627,0.147232,0.1468156,0.1463839,0.1459446,0.1454931,0.1450411,0.1445901,0.1441264,0.1436628,0.1432118,0.1427726,0.1423531,0.1419485,0.1415343,0.1411194,0.1407335,0.1403804,0.1400406,0.1396988,0.1393368,0.1389429,0.138502,0.1380166,0.137496,0.1369484,0.1363692,0.1357545,0.135141,0.1345468,0.133985,0.133526,0.1332632,0.133137,0.1330266,0.1328494,0.1326021,0.1323043,0.1319674,0.1316126,0.1312655,0.1309309,0.1306065,0.1302915,0.1299753,0.1296563,0.1293447,0.1290411,0.1287435,0.1284536,0.1281726,0.1278949,0.1276181,0.1273527,0.1271032,0.1268602,0.126609,0.1263552,0.1261155,0.1258903,0.1256717,0.1254554,0.1252392,0.1250175,0.1247908,0.1245645,0.1243446,0.1241407,0.1239459,0.1237428,0.1235286,0.1233138,0.1231095,0.122919,0.1227341,0.1225482,0.1223747,0.1222136,0.1220523,0.1218929,0.1217464,0.1216083,0.1214706,0.1213406,0.1212215,0.1211114,0.12101,0.120923,0.1208458,0.120762,0.120663,0.1205654,0.1204994,0.1204701,0.1204525,0.1204141,0.1203532,0.1202847,0.1202157,0.1201399,0.1200543,0.1199606,0.1198712,0.1197955,0.1197258,0.1196495,0.119565,0.1194782,0.1193888,0.119297,0.1192055,0.1191196,0.1190438,0.1189765,0.1189127,0.1188562,0.1188134,0.1187955,0.1187999,0.1188275,0.1188806,0.1189613,0.1190699,0.119203,0.1193639,0.1195442,0.1197452,0.119962,0.1201928,0.1204337,0.1206798,0.1209252,0.1211627,0.1213858,0.1215938,0.1217715,0.1219164,0.1220274,0.122109,0.1221579,0.1221754,0.1221671,0.1221336,0.1220811,0.122008,0.1219205,0.1218173,0.1216995,0.121567,0.1214271,0.1212863,0.1211417,0.1209885,0.1208312,0.1206736,0.1205065,0.1203313,0.1201549,0.1199779,0.1197979,0.1196175,0.1194384,0.1192596,0.1190862,0.1189286,0.1187801,0.118627,0.1184711,0.1183274,0.1181887,0.1180267,0.117851,0.1177094,0.1176013,0.1174803,0.1173348,0.1171795,0.11702,0.1168693,0.1167247,0.1165767,0.1164454,0.1163342,0.1162291,0.1161291,0.116036,0.1159441,0.1158555,0.1157791,0.1157132,0.1156458,0.1155801,0.1155321,0.1154826,0.0986261,0.098595,0.0985849,0.0985911,0.0986061,0.0986327,0.0986721,0.0987295,0.0988065,0.0989073,0.0990315,0.0991903,0.0993824,0.0996285,0.0999314,0.1003118,0.1007682,0.1013026,0.1019087,0.1025891,0.1033317,0.1041314,0.1049936,0.1059104,0.1068791,0.1078874,0.1089278,0.1099909,0.1110706,0.1121444,0.1131958,0.1142219,0.1152027,0.116144,0.117051,0.1179369,0.1188073,0.1196776,0.1205593,0.1214463,0.1223287,0.1232004,0.1240458,0.1248488,0.1255938,0.1262581,0.126825,0.1272898,0.1276603,0.1279297,0.1281058,0.12818,0.1281649,0.128047,0.1278324,0.1275072,0.1270919,0.1265771,0.1259925,0.1253451,0.1246648,0.1239659,0.1232625,0.1225695,0.1218998,0.1212653,0.1206645,0.120111,0.1195951,0.1191272,0.1187044,0.1183286,0.1179845,0.1176762,0.1174012,0.1171613,0.1169451,0.1167528,0.1165782,0.116416,0.1162624,0.1161177,0.115979,0.1158428,0.1157032,0.115559,0.1154107,0.1152512,0.1150827,0.1149118,0.1147386,0.1145635,0.1143912,0.1142246,0.1140646,0.1139196,0.1137965,0.1137007,0.1136269,0.1135828,0.113571,0.1136,0.113665,0.1137774,0.1139349,0.1141444,0.1143986,0.1147164,0.1150901,0.1155316,0.1160291,0.1165975,0.1172311,0.117948,0.1187276,0.1195848,0.1205057,0.1214942,0.1225394,0.1236479,0.1248048,0.1260095,0.1272498,0.1285232,0.1298241,0.1311545,0.1325044,0.1338481,0.1351685,0.13647,0.137744,0.1389727,0.1401541,0.1412984,0.1424064,0.1434942,0.1445862,0.1456995,0.1468786,0.1481573,0.1495892,0.1511776,0.1529944,0.1550163,0.1573091,0.1598572,0.1627018,0.1658225,0.1692414,0.1729459,0.1769598,0.1812622,0.1858261,0.1906337,0.1956308,0.2007899,0.2060398,0.2113224,0.2165993,0.2218113,0.2269163,0.2318453,0.2365739,0.2410433,0.2452478,0.249129,0.2526824,0.2559047,0.2587906,0.2613663,0.263606,0.265571,0.2672565,0.2687234,0.2699582,0.2710133,0.2718798,0.2726249,0.273268,0.2738133,0.2742585,0.2745931,0.2748264,0.2749487,0.2749667,0.274856,0.274641,0.2743133,0.2738998,0.2734028,0.2728311,0.272189,0.2714891,0.2707455,0.2699536,0.2691309,0.2682811,0.267399,0.2664836,0.2655616,0.2646353,0.2636815,0.2627102,0.2617537,0.2608012,0.2598425,0.2589014,0.2579854,0.2570902,0.2562249,0.2553909,0.2545962,0.2538586,0.253164,0.2525099,0.2518942,0.2513323,0.2508166,0.2503354,0.2498909,0.2494829,0.2491025,0.2487374,0.2483953,0.2480765,0.2477759,0.2474847,0.2471984,0.2469201,0.2466468,0.2463662,0.2460871,0.2458244,0.2455474,0.245221,0.2448408,0.2444203,0.2439469,0.2434293,0.2428635,0.2422418,0.2415687,0.2408358,0.2400433,0.2391829,0.2382625,0.2372823,0.23625,0.235173,0.2340433,0.2328735,0.2316776,0.2304741,0.229262,0.228041,0.226822,0.225612,0.2244068,0.2232063,0.2220207,0.2208531,0.2197052,0.2185756,0.2174705,0.2163936,0.2153401,0.2143147,0.2133241,0.2123652,0.2114294,0.2105256,0.2096631,0.2088418,0.208072,0.207352,0.2066871,0.2060936,0.2055805,0.2051594,0.2048147,0.2045526,0.2043658,0.2042332,0.2041654,0.2041745,0.2042872,0.20453,0.2049117,0.2054871,0.2062628,0.207252,0.2084668,0.2098567,0.2113963,0.2130016,0.2146141,0.2161768,0.2176309,0.2189182,0.2200119,0.2209071,0.2215776,0.2220732,0.2224232,0.2226868,0.2229147,0.2231454,0.2234118,0.2237136,0.2240263,0.2243346,0.2246461,0.2249638,0.2252718,0.2255526,0.2258049,0.2260315,0.2262494,0.2264861,0.2267676,0.2271027,0.2274785,0.227878,0.2282738,0.2286481,0.2289849,0.2292829,0.2295457,0.2297832,0.2299979,0.2301866,0.2303511,0.2304934,0.2306097,0.2307004,0.230765,0.230792,0.230772,0.23068,0.2304732,0.230149,0.2297104,0.2291712,0.2285463,0.2278351,0.2270629,0.2262479,0.225392,0.2245175,0.2236355,0.2227544,0.2218968,0.2210768,0.2203034,0.2195735,0.2188905,0.2182618,0.2176686,0.2170916,0.2165134,0.2159225,0.2153093,0.2146585,0.2139693,0.2132472,0.2125007,0.2117367,0.210956,0.2101595,0.2093554,0.2085788,0.2078569,0.2072027,0.2066547,0.2062317,0.2059503,0.2058363,0.2058948,0.2061367,0.2065746,0.2072238,0.2080994,0.2092302,0.2106545,0.2124055,0.2145314,0.2170255,0.2198874,0.2231728,0.2269429,0.231257,0.2362026,0.2418814,0.2482846,0.2554323,0.2633958,0.2720345,0.2812689,0.2910542,0.3012407,0.3117384,0.3223516,0.3328387,0.3430341,0.3527723,0.361969,0.3706029,0.3786508,0.3860383,0.392792,0.3989181,0.4042951,0.4089161,0.4127381,0.4156986,0.4178348,0.419177,0.4197392,0.4195121,0.4186339,0.4171977,0.4152564,0.4129559,0.4103859,0.4075855,0.4046336,0.4016068,0.3984991,0.3953117,0.3921204,0.3889385,0.3857723,0.3826468,0.3795546,0.3765014,0.3734789,0.3704794,0.3674952,0.3645206,0.3615616,0.358622,0.3557243,0.3528646,0.3500515,0.3473158,0.3446708,0.3421479,0.3397617,0.33752,0.3354359,0.3335384,0.3318411,0.3303531,0.3290893,0.3280854,0.3273319,0.3268194,0.3265512,0.3265644,0.3268335,0.327358,0.3281405,0.3291907,0.3304782,0.3319794,0.3336746,0.3355515,0.3375874,0.3397598,0.3420414,0.3444084,0.3468454,0.3493515,0.3518875,0.3544077,0.356893,0.3593298,0.3616801,0.3639,0.3660242,0.3680776,0.3700427,0.3719015,0.3736784,0.375385,0.3770053,0.3785456,0.3800072,0.3813909,0.3827017,0.3839461,0.3851092,0.3861752,0.3871531,0.3880421,0.388835,0.3895292,0.3901373,0.39065,0.3910621,0.3913704,0.3915658,0.3916586,0.3916559,0.3915707,0.3913783,0.3910666,0.3906704,0.3901873,0.3896102,0.3889404,0.3881772,0.387331,0.3864056,0.3854016,0.3843305,0.3831972,0.3820212,0.3808028,0.3795239,0.3781962,0.3768292,0.375428,0.3739999,0.3725451,0.3710648,0.369588,0.3681303,0.3666748,0.3652436,0.3638292,0.3623984,0.3609525,0.3595152,0.3580759,0.3566107,0.3551406,0.3536784,0.3522139,0.3507499,0.3492785,0.3477953,0.3463025,0.3448081,0.3433253,0.3418633,0.3404462,0.3390491,0.3376598,0.336311,0.3349999,0.3337282,0.3325076,0.3313352,0.3302117,0.3291546,0.328169,0.3272611,0.3264391,0.3257045,0.3250836,0.324603,0.3242911,0.3241748,0.3242808,0.324633,0.3252872,0.3262462,0.3275221,0.3291281,0.3310774,0.3333764,0.3359983,0.3389506,0.3422183,0.3457574,0.3495237,0.3534772,0.3575465,0.3616581,0.3657967,0.369926,0.3739949,0.3779966,0.3819418,0.3858559,0.3897661,0.3936442,0.3974153,0.4009041,0.4039073,0.4062436,0.407807,0.4086048,0.4087655,0.4085772,0.4083045,0.4082146,0.4084955,0.4092036,0.4103531,0.4118834,0.4136359,0.415452,0.4171864,0.4186519,0.4197482,0.4205064,0.4209824,0.4212469,0.4213432,0.4212953,0.4211103,0.4208034,0.4203891,0.4199159,0.4194223,0.4189303,0.4185126,0.4181817,0.4179086,0.4176588,0.4173898,0.4170415,0.4165534,0.4159223,0.4152103,0.4145057,0.4139159,0.4134863,0.4131971,0.4130631,0.4130294,0.4130395,0.4130905,0.4131494,0.4131978,0.4132223,0.4132181,0.4132272,0.4132829,0.4133991,0.4136218,0.4139867,0.4145206,0.4152295,0.4160799,0.4171114,0.4183562,0.4198272,0.421517,0.4234016,0.4254561,0.4276673,0.4300233,0.4324732,0.435012,0.4376594,0.4403447,0.4430733,0.4458501,0.448616,0.4513377,0.4540802,0.4569177,0.4598262,0.4627692,0.4657713,0.468825,0.4719146,0.4750391,0.4781809,0.4812995,0.484378,0.4873824,0.4902929,0.493175,0.4959927,0.498748,0.5014918,0.5041746,0.5068514,0.5095032,0.5120941,0.5145937,0.5169265,0.5191121,0.5211507,0.5230021,0.5246379,0.5260336,0.5272155,0.5281489,0.5288754,0.5293964,0.5296943,0.5297931,0.529717,0.529476,0.5290651
7738,FOSS_NIRSystem6500,barley,Unknown,Spain,1999,8.80,13.00,0.2482092,0.2536752,0.2584787,0.262213,0.265102,0.2677467,0.2700374,0.2717713,0.2729587,0.2737452,0.2742447,0.2743295,0.2741146,0.27393,0.2737925,0.2732338,0.2721198,0.2710303,0.2701473,0.269207,0.2681408,0.267088,0.2660233,0.2648747,0.263795,0.2628871,0.2620385,0.2611728,0.2603021,0.2593098,0.2582168,0.257187,0.2561579,0.2549828,0.2537331,0.252487,0.2511562,0.2497773,0.2484345,0.2470827,0.2456885,0.2442973,0.2428888,0.2413854,0.2397395,0.2379363,0.2358561,0.2335967,0.2313989,0.2291916,0.2266562,0.2238957,0.221418,0.2192247,0.216869,0.214327,0.2119779,0.2099414,0.2080196,0.2062084,0.2046518,0.2032836,0.2018908,0.2006195,0.199732,0.1990128,0.1982539,0.1974484,0.1966049,0.195791,0.195102,0.1944178,0.1935997,0.1927351,0.1918536,0.1908934,0.1899271,0.1890059,0.1880292,0.186957,0.1858775,0.1848314,0.1838077,0.1828073,0.1818299,0.1808136,0.179657,0.1784612,0.1774215,0.1765467,0.1756612,0.1747573,0.1739846,0.173366,0.1727252,0.1719607,0.1711525,0.1703896,0.1696404,0.1688985,0.1681895,0.1674639,0.1667012,0.1659807,0.1653263,0.164659,0.1639349,0.1632099,0.1625348,0.1619084,0.1612944,0.1606495,0.1599894,0.1593449,0.1586781,0.1579553,0.1572313,0.1565555,0.1559093,0.1552498,0.1545563,0.1538298,0.1530955,0.1523588,0.1516113,0.1508746,0.1501645,0.1494589,0.1487344,0.1479903,0.1472309,0.1464793,0.1457497,0.1450394,0.1443505,0.1436866,0.1430187,0.1423359,0.1416587,0.1410023,0.1403843,0.1398017,0.139217,0.1385993,0.1380021,0.1375052,0.1370775,0.1366559,0.1362232,0.1358115,0.1354329,0.1350566,0.1346678,0.1342959,0.1339502,0.1335996,0.1332371,0.1328793,0.1325201,0.1321376,0.131732,0.1313143,0.1308946,0.1304721,0.1300447,0.1296221,0.1292119,0.1288127,0.1284251,0.1280432,0.1276593,0.1272897,0.1269494,0.1266344,0.1263303,0.126031,0.1257303,0.1254166,0.1250599,0.1246328,0.1241321,0.1235905,0.123033,0.1224558,0.1218728,0.1212959,0.1207488,0.1203124,0.1200847,0.1200013,0.1199371,0.1198027,0.1195877,0.1193134,0.1189977,0.1186599,0.1183246,0.1180011,0.117688,0.1173864,0.1170935,0.116803,0.1165131,0.1162277,0.1159493,0.1156731,0.1154033,0.1151475,0.1148988,0.114648,0.1144006,0.1141617,0.1139197,0.1136702,0.1134281,0.1132013,0.1129819,0.112768,0.1125702,0.1123754,0.1121676,0.1119541,0.1117444,0.1115358,0.1113304,0.1111331,0.1109375,0.1107395,0.1105446,0.1103613,0.1101916,0.1100266,0.1098668,0.1097136,0.1095623,0.1094141,0.1092764,0.10915,0.1090309,0.1089218,0.1088189,0.1087223,0.1086365,0.1085675,0.1085114,0.1084464,0.1083657,0.1083083,0.1083047,0.1083128,0.1082962,0.1082683,0.1082462,0.1082196,0.1081801,0.1081308,0.1080781,0.1080165,0.1079424,0.1078621,0.1077808,0.1076931,0.1075969,0.1074981,0.1073945,0.107288,0.1071868,0.1070909,0.1069988,0.1069146,0.1068391,0.106775,0.1067258,0.1066998,0.1066968,0.106723,0.1067789,0.1068627,0.1069751,0.1071138,0.1072841,0.1074771,0.1076947,0.1079328,0.1081911,0.1084645,0.1087475,0.1090312,0.109307,0.1095671,0.1098085,0.1100189,0.1101989,0.1103446,0.1104592,0.1105401,0.1105872,0.1106046,0.1105939,0.1105655,0.1105171,0.1104499,0.110365,0.1102712,0.11017,0.1100606,0.1099404,0.1098061,0.1096624,0.109518,0.1093745,0.1092209,0.1090569,0.1088893,0.1087216,0.1085541,0.1083894,0.1082256,0.1080596,0.1078947,0.1077389,0.1075942,0.1074556,0.1073159,0.107181,0.1070501,0.106908,0.1067582,0.106629,0.1065214,0.1064032,0.1062699,0.1061417,0.1060123,0.105875,0.1057432,0.105616,0.1054953,0.1053919,0.1052996,0.1052051,0.1051144,0.1050343,0.1049623,0.1048956,0.1048368,0.1047914,0.1047526,0.1047162,0.104683,0.0879389,0.0879174,0.0879188,0.087937,0.0879665,0.0880106,0.088072,0.088154,0.0882485,0.0883593,0.0884989,0.0886818,0.0888988,0.0891694,0.0894967,0.0899003,0.0903811,0.0909427,0.0915753,0.0922807,0.0930492,0.0938767,0.0947691,0.0957173,0.0967137,0.09775,0.0988256,0.0999248,0.101037,0.1021479,0.1032441,0.1043184,0.1053495,0.1063381,0.1072893,0.1082209,0.1091295,0.1100254,0.1109273,0.1118339,0.1127345,0.113625,0.1144865,0.1152975,0.1160455,0.1167141,0.1172882,0.1177623,0.118143,0.1184246,0.1186172,0.1187123,0.1187201,0.1186257,0.1184343,0.1181348,0.1177486,0.117264,0.1167096,0.1160931,0.1154413,0.1147681,0.1140917,0.1134238,0.1127743,0.1121555,0.1115683,0.1110268,0.1105214,0.1100611,0.1096448,0.1092767,0.1089424,0.1086461,0.1083817,0.1081505,0.1079464,0.1077701,0.1076108,0.1074648,0.1073303,0.1072061,0.1070876,0.1069726,0.1068545,0.1067281,0.106594,0.1064492,0.1062941,0.1061296,0.1059608,0.1057898,0.1056154,0.1054423,0.1052801,0.1051347,0.1050054,0.1048987,0.104816,0.1047644,0.1047443,0.1047655,0.1048208,0.1049177,0.1050591,0.105254,0.1054909,0.1057851,0.106132,0.1065461,0.1070163,0.1075564,0.1081608,0.1088495,0.1096023,0.110431,0.1113221,0.1122845,0.1133077,0.1143957,0.115537,0.1167334,0.1179685,0.1192427,0.12055,0.1218817,0.1232267,0.1245734,0.1259053,0.1272084,0.128465,0.1296692,0.1308251,0.1319368,0.1330012,0.1340357,0.1350602,0.1360943,0.1371786,0.1383409,0.1396296,0.1410545,0.1426767,0.1444775,0.1465209,0.1487908,0.1513259,0.1541172,0.1571888,0.1605266,0.1641514,0.1680533,0.1722228,0.1766489,0.1812672,0.1860463,0.1909322,0.1958924,0.200878,0.2058231,0.2106857,0.2154075,0.2199541,0.2242597,0.2283147,0.2320736,0.2355321,0.2386683,0.2414733,0.2439873,0.2461828,0.248106,0.2497575,0.2512037,0.252432,0.2534997,0.254401,0.2551791,0.2558421,0.256406,0.2568766,0.2572437,0.2575153,0.2576844,0.257762,0.2577265,0.257593,0.257354,0.2570386,0.2566421,0.2561646,0.2556179,0.2550288,0.2544126,0.2537557,0.253062,0.2523291,0.2515633,0.2507698,0.2499628,0.2491447,0.2483175,0.247487,0.2466581,0.2458312,0.2450108,0.2441965,0.2433895,0.2425998,0.2418304,0.2410831,0.2403714,0.2397007,0.239059,0.2384617,0.2379078,0.2373993,0.2369272,0.2364872,0.2360854,0.2357196,0.2353769,0.2350459,0.234738,0.2344531,0.2341856,0.2339262,0.2336752,0.233457,0.2332682,0.2330665,0.2328345,0.2325894,0.232329,0.2320354,0.2317003,0.2313309,0.2309162,0.2304539,0.2299368,0.2293677,0.2287477,0.2280633,0.2273261,0.226532,0.2256773,0.2247584,0.2237879,0.22278,0.2217268,0.2206334,0.2195137,0.2183857,0.2172477,0.2161038,0.214962,0.2138253,0.2126967,0.211575,0.2104612,0.2093608,0.2082796,0.2072173,0.2061788,0.2051637,0.2041702,0.2032079,0.2022781,0.2013741,0.2004912,0.1996396,0.1988276,0.1980546,0.1973301,0.1966574,0.1960447,0.1955011,0.1950318,0.1946505,0.1943467,0.1941295,0.1939927,0.1939181,0.1939208,0.1940035,0.1941863,0.1945023,0.1949606,0.1956041,0.1964366,0.1974736,0.1987227,0.2001297,0.20167,0.2032658,0.2048567,0.206379,0.2077776,0.2090058,0.2100551,0.2109236,0.2115784,0.212067,0.2124233,0.2127082,0.2129707,0.2132452,0.2135568,0.213908,0.2142885,0.2146797,0.2150651,0.2154205,0.215732,0.215984,0.2161745,0.2163102,0.2164299,0.216577,0.2167695,0.2170035,0.2172724,0.2175673,0.2178628,0.218142,0.2183908,0.2186051,0.2187833,0.2189383,0.2190766,0.2191867,0.2192692,0.21933,0.2193629,0.219376,0.2193724,0.2193331,0.219251,0.2191157,0.2188927,0.2185729,0.2181565,0.2176491,0.2170601,0.2163928,0.2156658,0.2148965,0.2140968,0.2132804,0.2124533,0.2116265,0.2108173,0.2100362,0.2092924,0.2085921,0.2079433,0.2073432,0.2067741,0.2062182,0.205659,0.2050957,0.2045131,0.2038877,0.2032298,0.2025432,0.2018266,0.2010914,0.2003378,0.1995647,0.198781,0.1980119,0.1972866,0.1966264,0.1960598,0.1955961,0.1952576,0.1950771,0.195052,0.1951854,0.1954931,0.1959809,0.1966608,0.1975826,0.1987782,0.200255,0.2020522,0.2041628,0.2065833,0.2093707,0.212599,0.2163285,0.2206296,0.2255997,0.2312539,0.2376224,0.2447571,0.2525131,0.2608461,0.269758,0.279081,0.2887153,0.2985064,0.3082327,0.3177106,0.3267792,0.3353762,0.3434652,0.3510109,0.3579553,0.3643103,0.3700719,0.3751263,0.3794748,0.3831069,0.3859584,0.3880251,0.3893428,0.3899335,0.3897941,0.3890517,0.3877848,0.3860491,0.3839701,0.3816284,0.3790861,0.3764159,0.3736742,0.3708692,0.3680068,0.3651493,0.3623147,0.3595101,0.3567662,0.3540797,0.3514375,0.3488184,0.3462224,0.3436322,0.3410315,0.3384314,0.3358241,0.3332228,0.3306467,0.3280994,0.3255976,0.3231771,0.3208667,0.3186634,0.3165962,0.3146978,0.3129948,0.3114837,0.3101758,0.3090973,0.3082716,0.3076811,0.3073329,0.30724,0.3074355,0.3078919,0.308605,0.3095795,0.3108256,0.3122966,0.3139799,0.3158741,0.3179488,0.3201675,0.3225064,0.3249541,0.3275133,0.3301362,0.3327924,0.3354552,0.3380916,0.3406715,0.3431829,0.3456076,0.3479042,0.3500829,0.3521476,0.3540855,0.3559058,0.3576235,0.3592493,0.3608005,0.3622886,0.3636986,0.3650329,0.3662971,0.3674946,0.3686205,0.3696728,0.3706337,0.3714912,0.3722659,0.3729593,0.3735735,0.3741026,0.3745368,0.3748768,0.3751154,0.3752534,0.3752902,0.3752368,0.375094,0.3748546,0.37453,0.3741221,0.3736256,0.3730445,0.3723792,0.3716326,0.3708265,0.3699631,0.3690421,0.3680671,0.3670479,0.3659983,0.364908,0.3637773,0.3626101,0.3614047,0.360162,0.3588983,0.3576407,0.3563946,0.3551628,0.3539533,0.3527517,0.3515422,0.3503308,0.3490994,0.3478426,0.3465792,0.3452916,0.3439737,0.3426481,0.3413255,0.3399945,0.3386572,0.3373161,0.3359634,0.3345993,0.33323,0.3318724,0.3305573,0.3292627,0.3279713,0.3267101,0.3254821,0.3242899,0.3231405,0.3220276,0.320964,0.3199569,0.3190089,0.3181429,0.3173548,0.3166595,0.3160889,0.3156614,0.3153929,0.3152992,0.3154324,0.3158315,0.3165311,0.317539,0.3188774,0.3205406,0.3225389,0.3248749,0.3275202,0.3304921,0.333741,0.3372095,0.3408909,0.3447427,0.3486811,0.3526655,0.3566573,0.3606046,0.3644944,0.3682891,0.3720149,0.3757092,0.3793617,0.382946,0.3864053,0.3895852,0.3923216,0.394464,0.3958997,0.3966472,0.3968318,0.3967151,0.3965392,0.3965245,0.3968315,0.39753,0.3986414,0.4000901,0.401736,0.4034001,0.4049135,0.4061735,0.4071075,0.4077131,0.408063,0.4082435,0.4082853,0.408228,0.4080725,0.4077983,0.4074301,0.4070014,0.4065469,0.4061147,0.4057562,0.4054717,0.4052421,0.4050354,0.404791,0.4044189,0.4038937,0.403228,0.4024618,0.4016742,0.4009526,0.4003898,0.4000007,0.3997552,0.3996117,0.3995349,0.3995044,0.3994797,0.399442,0.3993835,0.399309,0.3992354,0.3991851,0.3992023,0.3993313,0.3995949,0.4000021,0.4005656,0.4012718,0.4021452,0.4032208,0.4045007,0.4059727,0.407641,0.4094783,0.4114783,0.4136152,0.4158448,0.4181612,0.4205698,0.423041,0.4255582,0.4281249,0.4307193,0.4333373,0.4359943,0.4386712,0.4413729,0.4440973,0.4469024,0.4498068,0.4527745,0.4557855,0.4588045,0.4618073,0.4648313,0.4677798,0.4706086,0.4733764,0.4760914,0.4787863,0.4814568,0.4840835,0.4866877,0.4892167,0.4916499,0.4940123,0.4962295,0.4983039,0.5002291,0.5019579,0.5034913,0.5048013,0.5059206,0.5068204,0.50749,0.507971,0.5082601,0.5083783,0.5082946,0.5079995,0.5076019
7739,FOSS_NIRSystem6500,barley,Unknown,Spain,1999,11.50,10.00,0.2722758,0.2780895,0.2830571,0.2871664,0.2904042,0.2930415,0.2954314,0.2976198,0.299264,0.3001849,0.3006582,0.3009565,0.3011149,0.3009835,0.3005794,0.2999987,0.2992303,0.2983816,0.2974447,0.2962979,0.2950606,0.2939703,0.292967,0.2918562,0.2906614,0.2895368,0.2885349,0.2876819,0.2869353,0.2860498,0.2849844,0.2839133,0.2828487,0.2816963,0.2804619,0.2791422,0.2777502,0.2764146,0.2750947,0.2736653,0.2721871,0.2706563,0.2690153,0.2673269,0.2656679,0.2639906,0.262167,0.2601902,0.2582293,0.2562342,0.2539012,0.2514031,0.2493075,0.247476,0.2453787,0.2431498,0.2411083,0.2392329,0.2375114,0.2360697,0.2347843,0.233518,0.232267,0.2311534,0.230306,0.2296088,0.2289109,0.2281573,0.2273838,0.2266141,0.2258396,0.2250804,0.2243652,0.2235909,0.222584,0.2214784,0.2204859,0.219537,0.2184936,0.2174037,0.2163311,0.2152261,0.2141097,0.2130546,0.212022,0.2108736,0.2095727,0.2083475,0.2073455,0.2064145,0.205405,0.2044356,0.2035431,0.2025989,0.2016809,0.20098,0.2004024,0.1996766,0.1988206,0.1979851,0.197188,0.1964041,0.1956208,0.194842,0.1940937,0.1933487,0.1925477,0.1917443,0.1910004,0.1902808,0.1895665,0.1888734,0.1881772,0.1874402,0.1866592,0.1858561,0.1850684,0.18429,0.1835058,0.1827522,0.1820344,0.1812879,0.1804943,0.1796944,0.1789165,0.1781488,0.1773726,0.1766007,0.1758526,0.1751004,0.1743201,0.1735396,0.1727736,0.1719979,0.1712032,0.170409,0.1696244,0.1688236,0.167986,0.1671369,0.1663122,0.165499,0.1646641,0.1638146,0.163,0.1622502,0.1615351,0.1608701,0.1602754,0.1597164,0.1591342,0.1585377,0.1579685,0.1574256,0.1568925,0.1563633,0.1558489,0.1553442,0.1548233,0.1542831,0.1537396,0.1531893,0.1526342,0.1520833,0.1515321,0.1509832,0.1504484,0.1499244,0.1494128,0.1489203,0.1484303,0.1479395,0.1474676,0.1470218,0.1465908,0.1461618,0.1457087,0.1452174,0.1446797,0.1440922,0.1434599,0.1428183,0.1421797,0.141519,0.1408432,0.1401696,0.1395188,0.1389616,0.1385879,0.1383352,0.1380822,0.1377634,0.1373865,0.1369701,0.1365192,0.1360484,0.1355841,0.1351397,0.1347131,0.1342981,0.1338808,0.1334569,0.1330386,0.132633,0.1322364,0.1318433,0.1314593,0.1310856,0.1307146,0.1303466,0.1299901,0.1296436,0.1292907,0.1289303,0.128581,0.1282496,0.1279299,0.1276153,0.1273032,0.1269868,0.1266686,0.1263541,0.1260428,0.1257454,0.1254667,0.125189,0.1248971,0.1246027,0.124322,0.1240549,0.1237921,0.1235304,0.1232839,0.1230522,0.1228233,0.1225981,0.1223852,0.1221803,0.1219777,0.121787,0.1216095,0.1214429,0.1212867,0.1211459,0.121017,0.1208849,0.1207409,0.120601,0.1204975,0.1204347,0.1203863,0.1203198,0.1202365,0.1201476,0.1200531,0.1199502,0.119841,0.1197224,0.1196043,0.1194946,0.11938,0.1192508,0.1191138,0.1189752,0.1188326,0.1186885,0.1185466,0.1184122,0.1182905,0.1181797,0.1180749,0.1179824,0.1179077,0.1178614,0.1178415,0.1178509,0.1178918,0.117966,0.1180749,0.1182133,0.118383,0.1185751,0.1187932,0.1190305,0.1192842,0.1195498,0.1198216,0.1200925,0.1203552,0.1206027,0.1208331,0.1210294,0.1211888,0.1213093,0.1213959,0.1214455,0.1214593,0.1214433,0.1213996,0.1213364,0.1212478,0.1211387,0.121013,0.1208743,0.1207185,0.120552,0.1203839,0.1202118,0.1200318,0.119848,0.1196622,0.1194639,0.119256,0.1190481,0.1188446,0.1186456,0.118447,0.1182431,0.1180368,0.1178373,0.11765,0.1174715,0.1172993,0.1171291,0.1169645,0.1167996,0.1166175,0.1164354,0.1162955,0.1161838,0.1160493,0.1158885,0.1157248,0.1155634,0.1154092,0.1152569,0.1151007,0.1149645,0.114851,0.114742,0.1146347,0.1145343,0.1144395,0.1143535,0.1142779,0.1142086,0.1141454,0.1140907,0.1140496,0.1140085,0.0970718,0.0970485,0.0970402,0.0970464,0.0970701,0.09711,0.0971588,0.0972216,0.0973042,0.0974147,0.097554,0.097735,0.0979545,0.0982341,0.0985769,0.0990065,0.0995218,0.1001252,0.1008079,0.1015758,0.1024204,0.1033361,0.1043278,0.1053833,0.106496,0.1076545,0.1088501,0.110065,0.1112903,0.112506,0.1136901,0.1148417,0.1159413,0.1169906,0.1179901,0.1189622,0.1199162,0.120868,0.1218335,0.1228084,0.1237781,0.1247354,0.1256678,0.1265565,0.1273801,0.1281167,0.1287546,0.1292884,0.1297197,0.1300388,0.1302564,0.1303635,0.1303715,0.1302632,0.1300471,0.1297088,0.1292674,0.128711,0.1280768,0.1273709,0.1266242,0.1258555,0.1250825,0.124319,0.1235812,0.1228855,0.1222261,0.1216146,0.1210458,0.1205341,0.1200708,0.1196556,0.1192772,0.1189422,0.118642,0.1183762,0.1181364,0.1179242,0.1177324,0.1175581,0.1173964,0.1172437,0.1170953,0.1169483,0.1167974,0.116642,0.1164844,0.1163158,0.1161331,0.1159461,0.1157637,0.1155808,0.1153938,0.1152131,0.1150463,0.1148981,0.1147713,0.1146711,0.1145944,0.1145536,0.1145511,0.1145968,0.1146849,0.1148217,0.1150038,0.1152464,0.1155426,0.1159061,0.116326,0.1168193,0.1173798,0.1180228,0.1187336,0.1195331,0.1204034,0.1213568,0.122381,0.1234865,0.1246534,0.1258809,0.127156,0.1284799,0.1298427,0.1312456,0.1326788,0.1341331,0.1355947,0.1370511,0.1384957,0.1399183,0.1412969,0.1426236,0.1439017,0.1451371,0.1463331,0.14751,0.1486949,0.1499085,0.1511949,0.1525867,0.1541488,0.155883,0.1578601,0.1600598,0.1625545,0.16532,0.1684029,0.171784,0.1754836,0.1794889,0.1838177,0.1884374,0.1933317,0.1984934,0.2038497,0.2093573,0.2149496,0.2205709,0.2261772,0.2317002,0.2371048,0.242322,0.2473178,0.2520244,0.2564473,0.2605345,0.2642739,0.2676522,0.2706705,0.2733574,0.2756645,0.2776687,0.2794029,0.2809235,0.2821971,0.2832973,0.2842245,0.2850152,0.2856761,0.2862278,0.2866738,0.2870037,0.2872303,0.2873404,0.2873396,0.287206,0.2869643,0.2866038,0.2861481,0.2855937,0.2849557,0.2842444,0.2834727,0.2826592,0.2817996,0.2808987,0.2799544,0.2789886,0.2780157,0.2770333,0.2760381,0.2750403,0.2740372,0.273024,0.2720131,0.2710208,0.2700485,0.2690956,0.2681621,0.2672599,0.2663964,0.2655637,0.2647663,0.2640244,0.2633551,0.2627175,0.2621128,0.2615569,0.2610458,0.2605734,0.2601325,0.2597154,0.2593184,0.2589507,0.2586056,0.2582773,0.2579597,0.2576514,0.2573563,0.2570683,0.256773,0.2564654,0.2561458,0.2558024,0.2554328,0.2550516,0.2546453,0.2541641,0.2536143,0.2530091,0.2523515,0.2516401,0.2508578,0.250012,0.2490999,0.2481287,0.2471014,0.2460193,0.2448826,0.2436902,0.2424631,0.2412135,0.2399529,0.2386794,0.2373972,0.2361122,0.2348268,0.2335519,0.2322919,0.2310436,0.2298065,0.2285901,0.2273995,0.2262361,0.2250955,0.2239794,0.2229006,0.2218573,0.2208415,0.2198516,0.2189023,0.2180012,0.2171395,0.2163224,0.2155541,0.2148472,0.214217,0.2136653,0.2132034,0.2128235,0.2125306,0.2123175,0.2121709,0.212101,0.2121046,0.212205,0.212442,0.2128354,0.2134404,0.2142582,0.2153073,0.2165971,0.2180627,0.2196877,0.2213994,0.2231242,0.2247908,0.226348,0.2277425,0.2289438,0.229941,0.230693,0.2312421,0.2316189,0.2318993,0.2321503,0.2324134,0.2327065,0.2330249,0.2333643,0.233717,0.2340733,0.2344108,0.2347117,0.2349703,0.2351984,0.235402,0.2356082,0.2358475,0.236141,0.2364967,0.2369029,0.2373368,0.2377707,0.23819,0.2385768,0.2389232,0.2392251,0.2394909,0.2397319,0.2399465,0.2401297,0.2402834,0.2404109,0.2405175,0.2405975,0.2406306,0.2406091,0.2405141,0.2403071,0.2399844,0.2395471,0.2390022,0.2383603,0.2376276,0.2368298,0.2359803,0.2350902,0.2341863,0.2332723,0.2323528,0.2314521,0.2305857,0.2297659,0.2289945,0.2282774,0.2276148,0.2269873,0.2263735,0.2257484,0.2251097,0.2244566,0.2237699,0.2230457,0.2222843,0.2214999,0.220705,0.2198904,0.2190556,0.2182145,0.2173969,0.2166363,0.2159549,0.2153864,0.214948,0.2146619,0.2145548,0.2146269,0.2148917,0.2153714,0.2160794,0.2170264,0.2182513,0.2197909,0.2216707,0.2239469,0.2266057,0.2296452,0.2331446,0.2371708,0.2417707,0.2470381,0.2530813,0.2598848,0.2674761,0.2759276,0.2850687,0.2948226,0.3051548,0.3158832,0.3269117,0.33805,0.3490381,0.3596871,0.369826,0.3794021,0.3883761,0.3967001,0.4043271,0.4112713,0.417534,0.4230228,0.427732,0.4316409,0.4346893,0.4368588,0.4381896,0.4387298,0.4384686,0.4375365,0.4360309,0.4340064,0.4315913,0.4288796,0.4259493,0.422882,0.4197306,0.4165005,0.413188,0.4098712,0.406582,0.4033084,0.4000626,0.3968458,0.3936605,0.3905003,0.3873638,0.3842488,0.3811449,0.3780586,0.3750004,0.3719781,0.3689909,0.3660602,0.363203,0.3604388,0.3578,0.3552899,0.352933,0.3507526,0.34878,0.347015,0.3454532,0.3441256,0.3430689,0.3422614,0.3417091,0.3414175,0.341419,0.3416882,0.3422226,0.3430341,0.3441309,0.3454581,0.3470001,0.3487505,0.3506857,0.3527867,0.3550293,0.3573872,0.3598482,0.3623729,0.3649449,0.367522,0.3700827,0.3726342,0.3751385,0.3775631,0.3798894,0.3821081,0.3842127,0.3862135,0.3881282,0.3899563,0.3916906,0.3933368,0.3949077,0.3963938,0.3978034,0.3991403,0.4003989,0.4015678,0.4026349,0.4036069,0.4044937,0.4052901,0.4059756,0.4065594,0.4070581,0.4074717,0.4077727,0.4079533,0.4080363,0.4080176,0.4079064,0.4076939,0.4073659,0.4069409,0.4064232,0.4058104,0.405103,0.4042998,0.4034047,0.4024343,0.4013914,0.4002738,0.3990972,0.397876,0.3966107,0.3952973,0.3939341,0.3925245,0.3910696,0.3895722,0.3880575,0.3865336,0.3850104,0.3835041,0.3820055,0.3805142,0.3790289,0.3775533,0.3760763,0.3745912,0.3730956,0.3715875,0.3700712,0.3685393,0.3670055,0.3654806,0.3639538,0.3624173,0.3608762,0.359336,0.3577981,0.356281,0.3548042,0.3533568,0.3519332,0.3505453,0.3491953,0.3478794,0.3466035,0.3453809,0.3442119,0.34312,0.3421063,0.341157,0.3402979,0.3395565,0.33894,0.3384658,0.3381697,0.3380704,0.338202,0.3386042,0.3393301,0.3403737,0.3417406,0.3434459,0.3455033,0.3479297,0.3507113,0.3538456,0.3573003,0.3610201,0.3649481,0.3690558,0.3733069,0.3776171,0.3819285,0.3862073,0.3904098,0.3945229,0.3985813,0.4025972,0.4065937,0.4105623,0.4144059,0.4179415,0.4209959,0.423381,0.4249721,0.4258064,0.4260291,0.4259229,0.4257475,0.4257615,0.4261557,0.4270006,0.4283044,0.4299703,0.4318454,0.4337434,0.435479,0.4369419,0.4380362,0.4387538,0.43919,0.4394181,0.439492,0.4394419,0.4392636,0.4389772,0.4385996,0.4381579,0.4376956,0.4372559,0.436888,0.4366131,0.4364022,0.4362004,0.4359743,0.4356566,0.4351722,0.4345132,0.4337611,0.4330185,0.4323708,0.4318836,0.4315689,0.4313873,0.4313299,0.4313662,0.4314169,0.4314803,0.4315287,0.4315211,0.4315171,0.4315298,0.431576,0.4317083,0.4319421,0.4323032,0.4328269,0.4335389,0.4344191,0.4354829,0.4367581,0.4382421,0.4399465,0.4418673,0.4439805,0.4462552,0.4486564,0.4511639,0.4537505,0.4563821,0.4590281,0.4617844,0.4646236,0.4674961,0.4703957,0.4732902,0.4761877,0.4791262,0.4821411,0.4852408,0.4883561,0.4915152,0.4947087,0.4978651,0.5010263,0.5041795,0.5072615,0.5102491,0.5131507,0.5160192,0.5188835,0.5216983,0.5244558,0.5271932,0.5298805,0.5325046,0.5350137,0.5373751,0.5396191,0.5416986,0.5435656,0.5452092,0.5466483,0.5478975,0.5489082,0.5496551,0.5501796,0.5505044,0.550624,0.5505106,0.5501888,0.5497322
9873,FOSS_NIRSystem6500,barley,Unknown,Spain,2001,9.60,11.00,0.260309,0.2650356,0.2689656,0.2721172,0.2746717,0.2768239,0.2785044,0.2794775,0.2799086,0.2799804,0.2796589,0.2790636,0.2781457,0.2769163,0.2755631,0.2741842,0.2726524,0.2708358,0.2689027,0.2670732,0.2653,0.2635136,0.2618552,0.2603566,0.258857,0.2573366,0.255871,0.2544739,0.2531494,0.2518502,0.2504842,0.2490736,0.247702,0.2463721,0.2450166,0.2435944,0.2421309,0.2406802,0.2392705,0.2378373,0.2363008,0.2347091,0.2331464,0.2315735,0.2298691,0.2280266,0.2261987,0.2243773,0.2223368,0.2200361,0.2176246,0.2152475,0.212891,0.2105324,0.2081521,0.2057111,0.2033067,0.2011003,0.1991112,0.1971758,0.1952775,0.1935029,0.1918902,0.1904379,0.1891338,0.187994,0.1869112,0.1858212,0.1847416,0.1836415,0.1824661,0.1812943,0.1801961,0.1791464,0.1781136,0.1770653,0.1759715,0.174935,0.1740401,0.1731092,0.1720017,0.1708834,0.169852,0.1688218,0.1677636,0.1667465,0.1657732,0.1648202,0.1638835,0.1629574,0.1620557,0.1611976,0.1603684,0.1595219,0.1586612,0.1578425,0.1570866,0.1563901,0.155718,0.1550235,0.1542933,0.153575,0.1528732,0.1521444,0.1514019,0.1507065,0.1500492,0.1493923,0.148727,0.1480561,0.1473738,0.1466963,0.1460535,0.1454328,0.1448059,0.1441645,0.1435127,0.1428413,0.1421625,0.1415,0.1408552,0.1402051,0.1395283,0.1388395,0.1381635,0.1374993,0.1368335,0.1361844,0.135555,0.1348958,0.1341918,0.1334978,0.1328668,0.1322904,0.1317575,0.1312298,0.1306732,0.1301015,0.1295607,0.1290641,0.1285723,0.1280848,0.1276334,0.1272238,0.1268418,0.1264846,0.1261594,0.1258498,0.1255634,0.1253133,0.1250787,0.1248558,0.1246547,0.1244528,0.1242344,0.1240403,0.1238885,0.1237266,0.1235375,0.1233548,0.1231828,0.1230006,0.1228066,0.1226097,0.1224113,0.1222087,0.1220054,0.1218043,0.1216046,0.1214099,0.1212334,0.1210813,0.1209554,0.1208462,0.1207365,0.1206057,0.1204457,0.1202459,0.1199979,0.1196811,0.1192858,0.1188514,0.1184215,0.1180204,0.1176554,0.1173355,0.1170777,0.1168993,0.116789,0.1167571,0.1167545,0.1167151,0.1166102,0.1164606,0.1162802,0.1160896,0.1159051,0.1157322,0.1155679,0.1154116,0.1152641,0.1151145,0.1149458,0.1147669,0.1146097,0.114478,0.1143526,0.1142307,0.114118,0.1140007,0.1138755,0.1137551,0.1136386,0.1135162,0.1133903,0.1132681,0.1131497,0.1130282,0.112903,0.1127954,0.1127187,0.1126418,0.1125337,0.1124136,0.1122976,0.1121848,0.112073,0.1119643,0.1118615,0.111754,0.111626,0.1114931,0.1113877,0.1113057,0.1112275,0.1111514,0.1110806,0.1110245,0.1110027,0.1109944,0.1109724,0.1109418,0.1109183,0.1109022,0.1108929,0.1108985,0.1109141,0.1109367,0.1109622,0.1109874,0.1110156,0.1110457,0.1110643,0.1110709,0.1110774,0.1110873,0.1110884,0.1110738,0.1110508,0.1110219,0.110981,0.110927,0.1108737,0.1108224,0.110765,0.1106994,0.1106283,0.110555,0.1104844,0.1104208,0.1103696,0.1103307,0.110308,0.1103026,0.1103178,0.1103591,0.1104263,0.1105231,0.1106459,0.1107999,0.1109788,0.1111889,0.1114276,0.111689,0.1119703,0.1122686,0.11258,0.112893,0.1131979,0.1134911,0.1137596,0.1139956,0.1141977,0.1143647,0.1144948,0.1145874,0.1146514,0.1146819,0.1146888,0.1146688,0.1146267,0.1145653,0.1144896,0.1144027,0.114302,0.1141867,0.1140612,0.1139307,0.1137953,0.1136584,0.1135119,0.1133534,0.1131918,0.1130299,0.1128643,0.1126964,0.1125245,0.1123487,0.112179,0.1120244,0.1118791,0.1117327,0.1115822,0.1114446,0.1113187,0.11117,0.111001,0.1108642,0.1107699,0.1106693,0.1105474,0.1104208,0.1102902,0.1101661,0.1100506,0.1099277,0.1098065,0.1097035,0.1096078,0.1095091,0.1094135,0.1093271,0.1092457,0.1091665,0.1090946,0.1090332,0.1089733,0.1089175,0.108872,0.1088386,0.0913945,0.0913586,0.0913458,0.091344,0.0913533,0.0913833,0.0914307,0.0914932,0.0915837,0.0916985,0.0918302,0.0919801,0.092174,0.0924147,0.0927211,0.0930945,0.0935518,0.0940776,0.0946789,0.0953487,0.0960873,0.0968909,0.0977573,0.0986826,0.0996594,0.1006779,0.10173,0.1028169,0.1039141,0.1050004,0.1060739,0.1071192,0.1081243,0.1090826,0.1100148,0.1109238,0.1118215,0.1127131,0.1136005,0.1144876,0.1153799,0.116266,0.1171274,0.1179502,0.1187215,0.1194127,0.1200151,0.1205249,0.1209382,0.1212589,0.1214837,0.1216126,0.1216397,0.1215664,0.1213799,0.1210934,0.1206995,0.1202182,0.1196551,0.1190318,0.1183582,0.1176637,0.11696,0.1162625,0.1155892,0.1149424,0.1143338,0.1137617,0.1132378,0.1127525,0.1123154,0.1119202,0.1115736,0.1112591,0.110985,0.1107416,0.1105245,0.1103271,0.1101531,0.109995,0.1098498,0.1097088,0.1095708,0.1094366,0.1093004,0.1091576,0.1090058,0.1088452,0.1086739,0.108496,0.1083124,0.1081228,0.1079277,0.1077359,0.1075566,0.1073919,0.1072495,0.1071265,0.1070291,0.1069565,0.1069164,0.1069094,0.1069529,0.107037,0.1071663,0.1073341,0.1075588,0.107832,0.1081652,0.1085582,0.1090222,0.1095439,0.1101483,0.1108251,0.1115727,0.1123848,0.1132756,0.1142371,0.1152684,0.1163531,0.1174997,0.1187066,0.1199616,0.1212521,0.1225721,0.1239099,0.1252614,0.1266213,0.1279738,0.1292949,0.1305711,0.1317948,0.1329725,0.134096,0.1351757,0.1362213,0.1372491,0.1382759,0.1393402,0.1405018,0.1417757,0.1432089,0.1447974,0.1465907,0.1486035,0.1508657,0.1533755,0.1561558,0.1592058,0.1625386,0.1661815,0.1701191,0.1743664,0.1788565,0.1835779,0.1884705,0.1935074,0.1986185,0.2037675,0.2088861,0.2139229,0.2188324,0.2235376,0.2280093,0.2322049,0.2360867,0.2396538,0.2428657,0.2457417,0.2482316,0.2504204,0.2523158,0.2539862,0.2553925,0.2566034,0.2576285,0.2584995,0.2592332,0.2598477,0.2603638,0.2607802,0.2611073,0.2613325,0.2614624,0.2614773,0.261398,0.2612119,0.2609398,0.2605854,0.2601539,0.2596571,0.259094,0.2584795,0.2578187,0.2571222,0.2563896,0.2556241,0.2548213,0.2539927,0.2531421,0.252275,0.2514013,0.2505176,0.2496238,0.2487453,0.247911,0.2471148,0.2463139,0.2455046,0.2447064,0.2439182,0.2431511,0.2424366,0.2418081,0.241236,0.2406993,0.2401905,0.2397138,0.2392776,0.2388832,0.238532,0.2382021,0.2378909,0.2375991,0.2373229,0.2370592,0.2368069,0.2365618,0.2363243,0.2361027,0.2358892,0.2356663,0.2354187,0.2351463,0.2348426,0.2345062,0.2341315,0.2337106,0.2332265,0.2326873,0.2321023,0.2314512,0.2307555,0.2300236,0.2292244,0.2283371,0.2273804,0.2263676,0.2252973,0.2241961,0.2230624,0.2219061,0.2207384,0.2195518,0.21835,0.2171442,0.2159453,0.214756,0.2135783,0.2124181,0.2112766,0.2101444,0.2090301,0.2079418,0.2068754,0.2058318,0.204814,0.2038306,0.2028777,0.201953,0.2010604,0.2002034,0.1993938,0.1986268,0.1979047,0.1972382,0.1966306,0.1961057,0.19566,0.1952892,0.1949886,0.194747,0.1945819,0.1944975,0.1945095,0.1946526,0.1949297,0.1953776,0.1960144,0.1968588,0.197905,0.1991102,0.200529,0.2021252,0.203785,0.2054336,0.2070389,0.2085378,0.2098799,0.2110534,0.2120113,0.2127764,0.2133593,0.2137936,0.2141297,0.2144128,0.2147003,0.21501,0.2153481,0.2157073,0.2160773,0.2164409,0.2167818,0.2170775,0.2173227,0.2175177,0.2176743,0.2178226,0.2179915,0.2182057,0.2184713,0.2187877,0.2191345,0.2194896,0.2198189,0.2201159,0.2203764,0.2205919,0.2207716,0.220918,0.22103,0.221113,0.2211694,0.2212002,0.2212084,0.2212083,0.2211893,0.2211124,0.2209594,0.2207375,0.2204228,0.2200005,0.2194807,0.2188662,0.2181828,0.2174517,0.2166698,0.2158445,0.2149962,0.2141403,0.213285,0.2124422,0.2116293,0.2108584,0.2101382,0.2094648,0.2088248,0.2082167,0.207634,0.2070512,0.2064563,0.2058417,0.2051902,0.2044973,0.2037759,0.2030298,0.2022542,0.2014544,0.200634,0.1998028,0.1989982,0.1982371,0.1975477,0.1969733,0.1965203,0.1961769,0.195947,0.1958677,0.1959722,0.1962499,0.1967044,0.1973608,0.1982438,0.1993739,0.2007936,0.2025095,0.2045114,0.2068542,0.2095889,0.2127544,0.2164355,0.2206946,0.2255685,0.231133,0.2374571,0.2444729,0.2521555,0.2605218,0.2693921,0.27868,0.2883072,0.2980606,0.3077636,0.3172204,0.3262855,0.3348903,0.3429721,0.3504547,0.3573252,0.3636289,0.3692906,0.3742762,0.3785603,0.3820542,0.3847772,0.3867435,0.3879241,0.388338,0.3880631,0.3871628,0.385691,0.3837902,0.3815601,0.3790677,0.3763945,0.3735824,0.3706756,0.3677399,0.3648,0.3618777,0.3589868,0.3561294,0.3533084,0.3505334,0.347809,0.345118,0.342464,0.3398467,0.337242,0.3346215,0.3320003,0.3294071,0.3268536,0.3243672,0.3219438,0.3195855,0.3173392,0.315233,0.313279,0.3115141,0.3099469,0.3085735,0.3074178,0.3065229,0.3058806,0.3054888,0.3053454,0.305485,0.3059022,0.3065937,0.307577,0.3088244,0.3103106,0.3120337,0.3139969,0.3161643,0.3184893,0.3209644,0.3235685,0.3262771,0.3290684,0.3319381,0.3348529,0.3377423,0.340593,0.3433873,0.3461097,0.3487344,0.3512382,0.3536327,0.3559064,0.3580348,0.3600455,0.3619378,0.3637253,0.3654363,0.3670601,0.3686038,0.370071,0.3714605,0.3727691,0.3739687,0.3750796,0.3761253,0.3770688,0.3778928,0.3786333,0.3792942,0.379844,0.3802773,0.3806045,0.3808304,0.380973,0.3810269,0.3809669,0.3807832,0.3804972,0.3801308,0.3796713,0.3791006,0.3784374,0.3776845,0.3768401,0.3759221,0.374927,0.3738557,0.3727482,0.3716331,0.3704869,0.3692871,0.3680713,0.3668308,0.3655327,0.3641836,0.3628069,0.3614202,0.3600289,0.3586389,0.3572579,0.3558811,0.3545163,0.3531688,0.3518313,0.3504998,0.3491572,0.3478146,0.3464721,0.3450872,0.3436772,0.3422832,0.3408875,0.3394665,0.3380372,0.3365998,0.3351663,0.3337516,0.3323627,0.331014,0.3297006,0.3284112,0.3271554,0.325921,0.3247362,0.3236264,0.3225576,0.3215389,0.3206061,0.3197453,0.3189481,0.3182546,0.3176829,0.3172434,0.3169648,0.3168837,0.3170466,0.3174765,0.3182068,0.3192554,0.3206525,0.3223841,0.3244486,0.3268549,0.329603,0.3326658,0.3359842,0.3395087,0.3432293,0.3471257,0.3510983,0.3551181,0.3591911,0.3632202,0.3671657,0.3710965,0.3749919,0.3788121,0.3825946,0.3863403,0.3899739,0.3933429,0.396266,0.3985241,0.4000525,0.4008903,0.4011812,0.4011738,0.4011066,0.4011841,0.401582,0.4023896,0.403565,0.40506,0.406767,0.4084715,0.4099986,0.4112543,0.4121527,0.4127392,0.4131014,0.4132734,0.413287,0.4131655,0.4129571,0.4126674,0.4122837,0.4118302,0.4113595,0.4109197,0.4104693,0.4100693,0.4097972,0.4095604,0.4092868,0.4089039,0.4083315,0.4076186,0.4067912,0.4059636,0.4052548,0.4046504,0.4042019,0.4038864,0.4036821,0.4035708,0.4034782,0.4033893,0.4033185,0.403229,0.4031333,0.4030217,0.4029469,0.4029814,0.4030919,0.4033057,0.4036904,0.4042678,0.4050005,0.4058937,0.4069857,0.408308,0.4098286,0.4115027,0.4133563,0.4154203,0.417637,0.41996,0.4223641,0.4247872,0.4273198,0.4299442,0.4325837,0.4352535,0.4379618,0.4407362,0.4435175,0.4463461,0.4492986,0.452323,0.4552841,0.4582974,0.4614222,0.4645452,0.4676248,0.4706641,0.4736449,0.4765213,0.4793817,0.4822002,0.4849096,0.4875932,0.4902726,0.4929309,0.4955491,0.4980207,0.5003885,0.5026542,0.5047627,0.5067366,0.5085117,0.510124,0.511476,0.5125805,0.5134628,0.5140889,0.514498,0.5147316,0.5147455,0.5145512,0.5142307,0.5137033
11255,FOSS_NIRSystem6500,barley,Unknown,Spain,2001,14.40,9.10,0.307242,0.3128957,0.3176608,0.3216659,0.3249596,0.3275104,0.3294516,0.3307234,0.3315862,0.3322091,0.3323032,0.3319078,0.3312322,0.3303857,0.3292862,0.3278868,0.3263127,0.3245487,0.3226495,0.3207374,0.3188371,0.3169827,0.3152382,0.3135425,0.3118262,0.3101522,0.3085299,0.3069114,0.3052734,0.3035965,0.3019072,0.3002646,0.2985821,0.29676,0.294917,0.2931114,0.2912512,0.28935,0.2875149,0.2857443,0.28398,0.2821664,0.2803049,0.2783911,0.2763065,0.2739533,0.2715569,0.2692173,0.2667014,0.2639235,0.2609976,0.2580412,0.2550987,0.2522177,0.2493315,0.2463578,0.2434345,0.2408219,0.2386206,0.2365381,0.234462,0.2325725,0.2309523,0.2294694,0.2280413,0.2267303,0.2255292,0.2244126,0.2232568,0.2219326,0.2205636,0.2193796,0.2183234,0.2172008,0.2159934,0.2147696,0.2135815,0.2124216,0.2112067,0.2099148,0.2086843,0.2076334,0.2066837,0.2056417,0.2044799,0.2033066,0.2021851,0.201101,0.2000564,0.1990477,0.1980424,0.1970292,0.1960304,0.1950429,0.1940458,0.193059,0.1921168,0.1912232,0.1903563,0.1895095,0.1886795,0.1878405,0.1869608,0.186038,0.1851145,0.1842331,0.1833719,0.1825322,0.1817404,0.1809602,0.1801219,0.1792604,0.178443,0.1776519,0.1768529,0.1760521,0.1752556,0.1744429,0.1736179,0.1728023,0.1719978,0.1711911,0.1703878,0.1695977,0.1688164,0.1680339,0.167253,0.1664865,0.1657277,0.1649503,0.164155,0.1633757,0.1626359,0.1619224,0.1612249,0.1605388,0.1598812,0.1592644,0.1586618,0.1580416,0.1574216,0.1568361,0.1562785,0.1557316,0.1552187,0.1547561,0.1543233,0.1538924,0.1534863,0.1531215,0.1527755,0.1524479,0.1521429,0.1518412,0.1515221,0.1512011,0.1509083,0.1506433,0.1503922,0.150137,0.1498705,0.1495936,0.1493125,0.1490329,0.1487541,0.1484676,0.1481748,0.1478899,0.1476192,0.1473534,0.147104,0.1468875,0.1467019,0.146529,0.1463514,0.1461446,0.1459022,0.1456186,0.1452834,0.144874,0.1443882,0.1438707,0.1433625,0.1428837,0.1424481,0.1420638,0.1417346,0.1414823,0.1413174,0.141247,0.1411968,0.1410976,0.14093,0.1407192,0.1404866,0.140252,0.1400254,0.139809,0.1395979,0.1393899,0.1391921,0.138998,0.138783,0.1385536,0.1383491,0.1381757,0.1380095,0.1378439,0.1376837,0.1375217,0.1373571,0.1371951,0.1370316,0.1368632,0.1366968,0.1365388,0.1363852,0.1362284,0.1360713,0.1359343,0.1358245,0.13571,0.1355649,0.1354099,0.13526,0.1351133,0.1349687,0.1348282,0.1346936,0.1345561,0.1343961,0.1342216,0.134072,0.1339528,0.1338398,0.133731,0.1336348,0.1335424,0.1334503,0.1333613,0.1332814,0.1332138,0.133151,0.1330965,0.133071,0.1330782,0.1330785,0.1330586,0.1330392,0.1330276,0.1330116,0.1329865,0.1329554,0.1329245,0.1328933,0.1328562,0.1328156,0.1327812,0.1327456,0.1326913,0.132625,0.1325628,0.1325053,0.1324435,0.1323756,0.1323089,0.1322469,0.1321826,0.1321155,0.1320547,0.1320071,0.131971,0.1319524,0.1319537,0.1319768,0.1320273,0.1321076,0.1322202,0.1323556,0.1325196,0.1327069,0.1329161,0.1331432,0.1333844,0.1336353,0.1338943,0.1341573,0.1344164,0.1346661,0.1349028,0.1351152,0.135301,0.1354564,0.1355767,0.135662,0.1357117,0.1357347,0.1357284,0.1356974,0.1356341,0.1355483,0.1354495,0.1353393,0.1352149,0.1350793,0.1349357,0.134783,0.1346249,0.1344602,0.1342903,0.1341145,0.1339318,0.1337481,0.1335663,0.1333754,0.1331753,0.1329811,0.1327987,0.1326233,0.1324565,0.1322949,0.132136,0.1319787,0.1318181,0.1316424,0.1314565,0.1312988,0.1311889,0.1310956,0.1309831,0.1308535,0.1307197,0.1305775,0.1304288,0.1302739,0.1301194,0.1299894,0.1298913,0.1297978,0.1296939,0.1295955,0.129509,0.1294254,0.1293483,0.1292832,0.1292285,0.1291735,0.1291233,0.1290862,0.1290434,0.1112723,0.111242,0.1112241,0.1112257,0.11124,0.1112616,0.1112973,0.1113555,0.1114382,0.1115359,0.1116493,0.1117837,0.1119613,0.1121884,0.1124899,0.1128625,0.1133184,0.1138452,0.1144577,0.1151497,0.1159214,0.1167714,0.1176955,0.1186822,0.1197249,0.1208178,0.1219403,0.1230767,0.1242052,0.1253129,0.1264012,0.1274476,0.1284423,0.1293806,0.1302837,0.1311522,0.132004,0.1328491,0.1336922,0.1345346,0.1353763,0.1362116,0.1370321,0.1378209,0.1385599,0.1392265,0.1398135,0.1403132,0.1407186,0.1410277,0.1412364,0.1413497,0.1413629,0.1412732,0.1410681,0.1407658,0.1403546,0.1398462,0.1392505,0.1386003,0.1379059,0.1371923,0.1364752,0.1357697,0.1350916,0.1344412,0.1338302,0.1332572,0.1327331,0.1322488,0.1318137,0.1314159,0.1310635,0.1307444,0.1304599,0.1302027,0.1299784,0.1297731,0.1295812,0.1294055,0.1292517,0.1291035,0.1289537,0.1288056,0.1286583,0.1285077,0.1283509,0.1281877,0.1280167,0.1278417,0.1276675,0.1274964,0.1273299,0.1271685,0.1270176,0.1268834,0.1267759,0.1266903,0.1266364,0.1266127,0.1266254,0.1266715,0.1267648,0.1269011,0.1270959,0.1273357,0.1276345,0.1279899,0.1284154,0.1288989,0.1294539,0.1300766,0.1307884,0.1315716,0.1324287,0.1333556,0.1343596,0.1354245,0.136551,0.1377297,0.1389655,0.1402517,0.1415744,0.1429176,0.1442809,0.1456646,0.1470603,0.1484568,0.1498442,0.151207,0.1525373,0.1538265,0.1550762,0.1562854,0.1574695,0.1586495,0.1598445,0.1610796,0.1623849,0.1638329,0.1654419,0.1672834,0.1693477,0.1716898,0.1743175,0.1772727,0.1805569,0.1841871,0.1881419,0.1924265,0.1970482,0.2019632,0.2071801,0.2126226,0.2182542,0.2240122,0.2298384,0.2356638,0.2414466,0.2471228,0.2526167,0.2579152,0.2629691,0.2677631,0.2722498,0.2763905,0.2801893,0.2836099,0.286689,0.2893911,0.2917825,0.2938353,0.2956304,0.2971457,0.2984528,0.2995522,0.3004819,0.3012634,0.3019122,0.3024482,0.302868,0.3031839,0.3033777,0.3034539,0.3033874,0.303204,0.302884,0.3024487,0.3019049,0.3012626,0.3005337,0.2997217,0.2988532,0.2979349,0.2969728,0.2959653,0.2949366,0.2938929,0.2928138,0.2916858,0.2905354,0.2893879,0.2882533,0.287129,0.2860133,0.2849305,0.2838891,0.2828448,0.2818053,0.2808041,0.2798176,0.2788462,0.2779348,0.2771151,0.276353,0.2756386,0.2749729,0.2743645,0.2738142,0.2732986,0.2728113,0.2723466,0.2719046,0.271486,0.2710894,0.2707091,0.2703436,0.2699837,0.2696202,0.2692651,0.2689203,0.2685713,0.2682094,0.2678325,0.2674218,0.2669704,0.2664743,0.2659391,0.2653541,0.2647104,0.2640123,0.2632485,0.2624269,0.2615436,0.2605948,0.2595769,0.2585043,0.2573822,0.2561976,0.2549733,0.2537128,0.2524262,0.2511227,0.2498042,0.2484784,0.2471513,0.2458299,0.244516,0.2432112,0.2419234,0.2406584,0.2394113,0.2381864,0.2369823,0.2358025,0.2346554,0.2335373,0.2324573,0.2314124,0.2303983,0.2294197,0.2284771,0.2275824,0.2267318,0.2259287,0.2251887,0.2245137,0.2239228,0.2234064,0.2229587,0.2225817,0.2222662,0.2220277,0.2218743,0.2218172,0.2218782,0.2220721,0.2224594,0.2230465,0.2238391,0.2248678,0.2260968,0.2275355,0.2291327,0.2308089,0.2324948,0.2341346,0.235674,0.2370737,0.2383075,0.2393241,0.2401533,0.2407953,0.2412771,0.2416648,0.2420045,0.2423388,0.2426895,0.2430632,0.24344,0.2438142,0.2441882,0.2445467,0.2448615,0.2451226,0.245337,0.2455324,0.2457346,0.2459735,0.2462833,0.2466617,0.2471007,0.2475799,0.2480782,0.248565,0.2490203,0.249428,0.2497865,0.2501099,0.2503969,0.2506376,0.2508361,0.2510054,0.2511467,0.2512594,0.2513536,0.2514194,0.2514285,0.2513512,0.2511739,0.2508796,0.2504711,0.2499575,0.2493407,0.2486382,0.2478627,0.247022,0.2461356,0.2452184,0.2442894,0.2433716,0.2424779,0.2416128,0.2407839,0.2400056,0.2392862,0.2386169,0.2379831,0.2373627,0.2367447,0.236118,0.23546,0.2347688,0.2340432,0.2332831,0.2325075,0.231723,0.2309256,0.2301173,0.2293054,0.2285192,0.2277829,0.2271487,0.2266386,0.2262549,0.226057,0.2260565,0.2262316,0.2265978,0.2271844,0.2280157,0.2291202,0.2305211,0.2322407,0.2343417,0.2368563,0.2397836,0.243189,0.247109,0.251582,0.2567146,0.2625828,0.2692341,0.2767368,0.2851614,0.294413,0.3044099,0.3151512,0.3264181,0.3380945,0.3500657,0.3620274,0.3738069,0.3852266,0.3961152,0.4063992,0.4159771,0.424802,0.4329141,0.4402993,0.4468273,0.4525344,0.457423,0.4613782,0.4644298,0.4666321,0.4679472,0.4683666,0.4679965,0.4669388,0.4652456,0.4630409,0.4604393,0.45751,0.4543374,0.4509979,0.4475425,0.4440176,0.4404522,0.4368722,0.4332868,0.429714,0.4261672,0.422644,0.4191499,0.4156995,0.4122916,0.4088881,0.4054891,0.4021184,0.3987852,0.3954986,0.3922507,0.3890641,0.3859609,0.3829627,0.3800793,0.377325,0.3747346,0.3723262,0.370084,0.3680439,0.3662555,0.3647255,0.3634224,0.362363,0.3615699,0.3610657,0.3608319,0.3608693,0.3611957,0.3617928,0.3626499,0.3637684,0.3651372,0.3667174,0.3684839,0.3704292,0.37252,0.3747528,0.3771208,0.3795833,0.3820914,0.3846235,0.387162,0.389668,0.3921201,0.3945111,0.3968287,0.3990501,0.4011641,0.4031648,0.4050766,0.4069125,0.4086611,0.4103339,0.4119244,0.4134261,0.4148474,0.4161702,0.4174033,0.4185689,0.419648,0.4206247,0.4214994,0.422287,0.4229872,0.423591,0.4240856,0.4244626,0.4247347,0.4249108,0.4249991,0.4250005,0.4248788,0.4246182,0.4242562,0.4238082,0.4232644,0.4226139,0.4218517,0.420983,0.4200329,0.4190053,0.4178733,0.4166709,0.4154264,0.4141364,0.4128002,0.4114249,0.4099997,0.4085041,0.4069718,0.4054152,0.4038219,0.4022112,0.4005854,0.3989521,0.3973148,0.3956843,0.3940965,0.3925286,0.3909425,0.3893787,0.3878513,0.3863194,0.3847772,0.3832365,0.3816864,0.3801346,0.3785822,0.3770278,0.3754616,0.3738697,0.3722945,0.3707624,0.3692675,0.3678052,0.3663715,0.3649639,0.3636143,0.3623239,0.3610736,0.3598791,0.3587547,0.3576898,0.3566911,0.3557877,0.3549772,0.3542769,0.3536993,0.3532625,0.3530186,0.3530116,0.3532522,0.3537572,0.3545854,0.3557588,0.3572893,0.3591699,0.3614068,0.3639928,0.3669147,0.3701192,0.3735957,0.3773165,0.3812028,0.3852396,0.3893919,0.3936011,0.3978032,0.4019892,0.4061492,0.4102611,0.4143412,0.4183888,0.4224346,0.4264415,0.4302732,0.433762,0.4367438,0.4389925,0.4404544,0.4412515,0.4414901,0.4414154,0.4413253,0.441462,0.4420018,0.442989,0.4444031,0.4461685,0.4481402,0.4501486,0.4519824,0.4535036,0.4546841,0.4555145,0.4560775,0.4564282,0.456567,0.4565945,0.4565133,0.4562854,0.4559618,0.4555859,0.4551988,0.4548599,0.454569,0.4543528,0.4542263,0.4540848,0.4539182,0.4536403,0.4532006,0.4526268,0.4519271,0.4512411,0.4506375,0.4501809,0.4499238,0.4497977,0.4497546,0.4497712,0.4498484,0.4499696,0.4500814,0.4501644,0.4502561,0.4503282,0.4504426,0.4506671,0.4509825,0.4514366,0.452059,0.4528638,0.4538538,0.4549794,0.4562902,0.4578536,0.45964,0.4616443,0.46381,0.4661081,0.4685351,0.4711227,0.4738187,0.4765487,0.479324,0.4821545,0.4850584,0.4879853,0.490946,0.4939492,0.496907,0.4999589,0.5031307,0.5063158,0.509545,0.512836,0.5161867,0.5194784,0.5227539,0.5260299,0.5291935,0.5322939,0.5353743,0.5383907,0.5413303,0.544297,0.5472801,0.5501295,0.5529594,0.5557253,0.5583605,0.5608932,0.5632846,0.5655115,0.5674549,0.5691831,0.5707687,0.5721181,0.5731806,0.5740219,0.57464,0.5749591,0.5750398,0.5749229,0.574656,0.5741966
